position,velocity,density,energy,pressure
-0.600750, -0.038824, 0.540236, 2.499780, 0.540196 
-0.599304, -0.061874, 0.603129, 2.499182, 0.602963 
-0.597635, -0.073356, 0.667871, 2.498658, 0.667571 
-0.595804, -0.076134, 0.729838, 2.498387, 0.729446 
-0.593846, -0.071989, 0.785737, 2.498414, 0.785324 
-0.591782, -0.061939, 0.833571, 2.498723, 0.833219 
-0.589622, -0.046501, 0.872607, 2.499256, 0.872391 
-0.587375, -0.026163, 0.903377, 2.499903, 0.903346 
-0.585132, -0.006396, 0.927125, 2.500419, 0.927253 
-0.582957, 0.009585, 0.946200, 2.500738, 0.946432 
-0.580842, 0.022292, 0.962470, 2.500924, 0.962767 
-0.578779, 0.032085, 0.976720, 2.501025, 0.977055 
-0.576765, 0.039232, 0.989103, 2.501073, 0.989458 
-0.574800, 0.043790, 0.999383, 2.501091, 0.999749 
-0.572871, 0.046343, 1.007171, 2.501102, 1.007543 
-0.571521, 0.018628, 1.011224, 2.500906, 1.011531 
-0.570096, -0.005304, 1.013340, 2.500420, 1.013482 
-0.568565, -0.023772, 1.013261, 2.499841, 1.013207 
-0.566920, -0.036172, 1.010912, 2.499337, 1.010689 
-0.565089, -0.037934, 1.006418, 2.499155, 1.006133 
-0.563181, -0.036284, 1.000585, 2.499172, 1.000307 
-0.561176, -0.028924, 0.994431, 2.499402, 0.994229 
-0.559058, -0.015492, 0.989216, 2.499798, 0.989145 
-0.556916, -0.001359, 0.986407, 2.500142, 0.986452 
-0.554811, 0.010740, 0.986690, 2.500364, 0.986809 
-0.552743, 0.020799, 0.989807, 2.500496, 0.989972 
-0.550713, 0.028830, 0.994954, 2.500567, 0.995144 
-0.548719, 0.034876, 1.001063, 2.500600, 1.001266 
-0.546764, 0.038738, 1.006989, 2.500616, 1.007199 
-0.544838, 0.041162, 1.011673, 2.500624, 1.011885 
-0.543498, 0.012649, 1.013882, 2.500431, 1.014029 
-0.542033, -0.009189, 1.014531, 2.500011, 1.014535 
-0.540460, -0.025286, 1.013273, 2.499548, 1.013121 
-0.538777, -0.035433, 1.010052, 2.499181, 1.009777 
-0.536922, -0.036064, 1.005015, 2.499114, 1.004720 
-0.535050, -0.036262, 0.999095, 2.499128, 0.998802 
-0.533054, -0.028869, 0.993038, 2.499377, 0.992827 
-0.530929, -0.015045, 0.988053, 2.499798, 0.987981 
-0.528787, -0.000957, 0.985575, 2.500146, 0.985621 
-0.526682, 0.011053, 0.986188, 2.500367, 0.986308 
-0.524615, 0.021008, 0.989565, 2.500497, 0.989730 
-0.522586, 0.028952, 0.994880, 2.500567, 0.995070 
-0.520597, 0.034532, 1.001070, 2.500602, 1.001273 
-0.518640, 0.038551, 1.007036, 2.500618, 1.007245 
-0.516717, 0.040888, 1.011714, 2.500622, 1.011926 
-0.515379, 0.012091, 1.013905, 2.500430, 1.014052 
-0.513916, -0.009910, 1.014524, 2.500003, 1.014526 
-0.512342, -0.025969, 1.013233, 2.499533, 1.013078 
-0.510656, -0.035899, 1.009984, 2.499166, 1.009704 
-0.508798, -0.036146, 1.004926, 2.499109, 1.004630 
-0.506915, -0.035231, 0.998992, 2.499147, 0.998701 
-0.504924, -0.028453, 0.992964, 2.499389, 0.992756 
-0.502799, -0.014629, 0.988007, 2.499806, 0.987938 
-0.500658, -0.000668, 0.985566, 2.500150, 0.985613 
-0.498555, 0.011239, 0.986212, 2.500368, 0.986333 
-0.496489, 0.021130, 0.989614, 2.500497, 0.989779 
-0.494465, 0.028482, 0.994931, 2.500569, 0.995121 
-0.492474, 0.034293, 1.001124, 2.500605, 1.001328 
-0.490515, 0.038475, 1.007084, 2.500620, 1.007294 
-0.488592, 0.040918, 1.011748, 2.500624, 1.011961 
-0.487257, 0.011761, 1.013924, 2.500429, 1.014071 
-0.485795, -0.010388, 1.014530, 2.499995, 1.014530 
-0.484221, -0.026415, 1.013228, 2.499522, 1.013069 
-0.482533, -0.036071, 1.009967, 2.499159, 1.009686 
-0.480671, -0.036064, 1.004901, 2.499109, 1.004604 
-0.478787, -0.035033, 0.998964, 2.499149, 0.998675 
-0.476796, -0.028200, 0.992940, 2.499393, 0.992733 
-0.474671, -0.014431, 0.987992, 2.499808, 0.987924 
-0.472531, -0.000551, 0.985561, 2.500151, 0.985608 
-0.470428, 0.011319, 0.986213, 2.500369, 0.986335 
-0.468370, 0.020479, 0.989607, 2.500500, 0.989773 
-0.466344, 0.028127, 0.994924, 2.500574, 0.995116 
-0.464350, 0.034165, 1.001118, 2.500611, 1.001324 
-0.462389, 0.038522, 1.007078, 2.500624, 1.007290 
-0.460464, 0.041091, 1.011743, 2.500627, 1.011957 
-0.459133, 0.011611, 1.013917, 2.500430, 1.014064 
-0.457673, -0.010675, 1.014527, 2.499989, 1.014526 
-0.456097, -0.026516, 1.013230, 2.499515, 1.013070 
-0.454406, -0.035950, 1.009973, 2.499156, 1.009691 
-0.452544, -0.035866, 1.004912, 2.499108, 1.004615 
-0.450659, -0.034854, 0.998980, 2.499148, 0.998690 
-0.448669, -0.028102, 0.992957, 2.499390, 0.992749 
-0.446545, -0.014429, 0.988004, 2.499805, 0.987935 
-0.444406, -0.000567, 0.985560, 2.500150, 0.985607 
-0.442313, 0.010424, 0.986191, 2.500367, 0.986312 
-0.440250, 0.019942, 0.989567, 2.500504, 0.989733 
-0.438221, 0.027877, 0.994874, 2.500581, 0.995068 
-0.436224, 0.034151, 1.001068, 2.500618, 1.001275 
-0.434262, 0.038718, 1.007036, 2.500631, 1.007250 
-0.432335, 0.041372, 1.011716, 2.500633, 1.011931 
-0.431007, 0.011604, 1.013903, 2.500433, 1.014050 
-0.429546, -0.010578, 1.014532, 2.499987, 1.014530 
-0.427968, -0.026216, 1.013255, 2.499514, 1.013094 
-0.426276, -0.035609, 1.010015, 2.499156, 1.009733 
-0.424415, -0.035589, 1.004968, 2.499107, 1.004671 
-0.422532, -0.034712, 0.999041, 2.499143, 0.998749 
-0.420544, -0.028164, 0.993010, 2.499381, 0.992800 
-0.418422, -0.014609, 0.988034, 2.499797, 0.987962 
-0.416293, -0.001780, 0.985555, 2.500136, 0.985598 
-0.414196, 0.009628, 0.986139, 2.500365, 0.986259 
-0.412130, 0.019490, 0.989482, 2.500509, 0.989650 
-0.410097, 0.027722, 0.994775, 2.500590, 0.994971 
-0.408097, 0.034284, 1.000973, 2.500627, 1.001183 
-0.406133, 0.038990, 1.006962, 2.500639, 1.007177 
-0.404206, 0.041739, 1.011675, 2.500641, 1.011893 
-0.402877, 0.012015, 1.013894, 2.500437, 1.014043 
-0.401414, -0.009979, 1.014560, 2.499992, 1.014559 
-0.399836, -0.025604, 1.013318, 2.499519, 1.013158 
-0.398145, -0.035098, 1.010109, 2.499159, 1.009827 
-0.396286, -0.035261, 1.005081, 2.499105, 1.004784 
-0.394405, -0.034625, 0.999158, 2.499135, 0.998864 
-0.392421, -0.028378, 0.993110, 2.499368, 0.992896 
-0.390314, -0.016228, 0.988103, 2.499764, 0.988023 
-0.388180, -0.002925, 0.985549, 2.500123, 0.985589 
-0.386078, 0.008883, 0.986066, 2.500365, 0.986186 
-0.384008, 0.019102, 0.989361, 2.500516, 0.989531 
-0.381972, 0.027700, 0.994631, 2.500599, 0.994830 
-0.379970, 0.034453, 1.000831, 2.500637, 1.001043 
-0.378004, 0.039310, 1.006845, 2.500650, 1.007063 
-0.376076, 0.042159, 1.011602, 2.500651, 1.011822 
-0.374744, 0.012731, 1.013864, 2.500443, 1.014015 
-0.373280, -0.009178, 1.014574, 2.500000, 1.014576 
-0.371702, -0.024845, 1.013375, 2.499527, 1.013218 
-0.370013, -0.034469, 1.010203, 2.499165, 1.009924 
-0.368156, -0.034842, 1.005202, 2.499106, 1.004905 
-0.366278, -0.034469, 0.999286, 2.499128, 0.998991 
-0.364306, -0.029448, 0.993237, 2.499334, 0.993016 
-0.362203, -0.017609, 0.988185, 2.499734, 0.988097 
-0.360065, -0.003885, 0.985561, 2.500111, 0.985598 
-0.357959, 0.008303, 0.986015, 2.500365, 0.986135 
-0.355885, 0.018935, 0.989266, 2.500523, 0.989438 
-0.353846, 0.027742, 0.994516, 2.500609, 0.994717 
-0.351842, 0.034669, 1.000717, 2.500648, 1.000932 
-0.349875, 0.039660, 1.006754, 2.500660, 1.006975 
-0.347946, 0.042550, 1.011547, 2.500661, 1.011770 
-0.346611, 0.013380, 1.013845, 2.500450, 1.013998 
-0.345146, -0.008449, 1.014591, 2.500008, 1.014595 
-0.343569, -0.024131, 1.013425, 2.499536, 1.013270 
-0.341881, -0.033851, 1.010280, 2.499171, 1.010002 
-0.340029, -0.034406, 1.005306, 2.499098, 1.005002 
-0.338154, -0.034639, 0.999383, 2.499113, 0.999085 
-0.336188, -0.030105, 0.993319, 2.499309, 0.993091 
-0.334089, -0.018633, 0.988226, 2.499709, 0.988132 
-0.331947, -0.004584, 0.985540, 2.500102, 0.985575 
-0.329836, 0.008043, 0.985940, 2.500366, 0.986060 
-0.327760, 0.018879, 0.989153, 2.500528, 0.989326 
-0.325719, 0.027862, 0.994382, 2.500616, 0.994585 
-0.323714, 0.034932, 1.000584, 2.500655, 1.000801 
-0.321746, 0.039950, 1.006638, 2.500667, 1.006861 
-0.319818, 0.042834, 1.011462, 2.500669, 1.011687 
-0.318480, 0.013889, 1.013792, 2.500456, 1.013946 
-0.317015, -0.007862, 1.014570, 2.500015, 1.014576 
-0.315437, -0.023545, 1.013437, 2.499544, 1.013284 
-0.313750, -0.033363, 1.010322, 2.499177, 1.010046 
-0.311899, -0.033948, 1.005371, 2.499104, 1.005068 
-0.310025, -0.034715, 0.999456, 2.499112, 0.999162 
-0.308067, -0.030591, 0.993408, 2.499290, 0.993175 
-0.305972, -0.019368, 0.988294, 2.499691, 0.988195 
-0.303826, -0.004974, 0.985569, 2.500096, 0.985602 
-0.301713, 0.007862, 0.985933, 2.500366, 0.986053 
-0.299634, 0.018885, 0.989117, 2.500530, 0.989290 
-0.297592, 0.028026, 0.994330, 2.500619, 0.994533 
-0.295586, 0.035111, 1.000526, 2.500658, 1.000743 
-0.293619, 0.040093, 1.006584, 2.500670, 1.006808 
-0.291691, 0.042968, 1.011426, 2.500672, 1.011651 
-0.290351, 0.014228, 1.013776, 2.500458, 1.013930 
-0.288884, -0.007438, 1.014575, 2.500019, 1.014581 
-0.287307, -0.023140, 1.013463, 2.499549, 1.013311 
-0.285614, -0.032371, 1.010360, 2.499199, 1.010089 
-0.283774, -0.034427, 1.005432, 2.499110, 1.005131 
-0.281901, -0.034824, 0.999531, 2.499105, 0.999235 
-0.279946, -0.030997, 0.993483, 2.499277, 0.993246 
-0.277851, -0.019789, 0.988352, 2.499681, 0.988251 
-0.275703, -0.005267, 0.985601, 2.500091, 0.985632 
-0.273588, 0.007767, 0.985939, 2.500364, 0.986059 
-0.271508, 0.018964, 0.989105, 2.500529, 0.989279 
-0.269465, 0.028111, 0.994310, 2.500617, 0.994513 
-0.267461, 0.035132, 1.000504, 2.500657, 1.000722 
-0.265494, 0.040079, 1.006570, 2.500669, 1.006794 
-0.263565, 0.042940, 1.011426, 2.500671, 1.011651 
-0.262224, 0.014401, 1.013792, 2.500458, 1.013946 
-0.260756, -0.007212, 1.014606, 2.500021, 1.014613 
-0.259166, -0.021732, 1.013500, 2.499578, 1.013356 
-0.257481, -0.031673, 1.010409, 2.499219, 1.010143 
-0.255660, -0.035135, 1.005515, 2.499094, 1.005212 
-0.253774, -0.034204, 0.999588, 2.499103, 0.999292 
-0.251824, -0.031317, 0.993531, 2.499274, 0.993294 
-0.249729, -0.020127, 0.988386, 2.499678, 0.988284 
-0.247580, -0.005442, 0.985620, 2.500091, 0.985651 
-0.245462, 0.007783, 0.985952, 2.500364, 0.986071 
-0.243382, 0.018978, 0.989126, 2.500527, 0.989299 
-0.241340, 0.028036, 0.994354, 2.500614, 0.994556 
-0.239336, 0.034998, 1.000587, 2.500652, 1.000804 
-0.237370, 0.039907, 1.006695, 2.500665, 1.006917 
-0.235442, 0.042753, 1.011588, 2.500666, 1.011811 
-0.234099, 0.014361, 1.013960, 2.500437, 1.014107 
-0.232612, -0.005480, 1.014728, 2.500004, 1.014728 
-0.231030, -0.020776, 1.013489, 2.499541, 1.013331 
-0.229352, -0.031380, 1.010165, 2.499161, 1.009879 
-0.227548, -0.036055, 1.004926, 2.499002, 1.004591 
-0.225681, -0.036998, 0.998517, 2.498987, 0.998181 
-0.223726, -0.034010, 0.991790, 2.499178, 0.991526 
-0.221616, -0.021718, 0.985831, 2.499629, 0.985717 
-0.219462, -0.006483, 0.982251, 2.500069, 0.982278 
-0.217338, 0.007416, 0.982033, 2.500359, 0.982151 
-0.215257, 0.018897, 0.985097, 2.500526, 0.985269 
-0.213217, 0.027868, 0.990737, 2.500613, 0.990939 
-0.211213, 0.034762, 0.997917, 2.500651, 0.998133 
-0.209248, 0.039578, 1.005465, 2.500663, 1.005687 
-0.207320, 0.042431, 1.012216, 2.500662, 1.012439 
-0.205499, 0.041361, 1.017010, 2.500612, 1.017215 
-0.204136, 0.014652, 1.019157, 2.500389, 1.019286 
-0.202672, -0.007238, 1.019394, 2.499959, 1.019375 
-0.201089, -0.023430, 1.017409, 2.499507, 1.017236 
-0.199399, -0.034146, 1.013176, 2.499147, 1.012885 
-0.197617, -0.040096, 1.007066, 2.498940, 1.006711 
-0.195720, -0.038517, 0.999745, 2.498967, 0.999401 
-0.193729, -0.033313, 0.992246, 2.499215, 0.991991 
-0.191625, -0.021872, 0.985861, 2.499653, 0.985752 
-0.189464, -0.006434, 0.982099, 2.500094, 0.982132 
-0.187345, 0.006642, 0.981875, 2.500374, 0.982000 
-0.185263, 0.017761, 0.985004, 2.500542, 0.985184 
-0.183218, 0.027061, 0.990706, 2.500629, 0.990914 
-0.181214, 0.034177, 0.997882, 2.500666, 0.998104 
-0.179252, 0.038956, 1.005306, 2.500673, 1.005532 
-0.177396, 0.039922, 1.011640, 2.500623, 1.011849 
-0.175563, 0.039147, 1.016229, 2.500583, 1.016423 
-0.174187, 0.012637, 1.018192, 2.500356, 1.018309 
-0.172705, -0.008482, 1.018235, 2.499934, 1.018206 
-0.171101, -0.024035, 1.016063, 2.499504, 1.015890 
-0.169412, -0.034866, 1.011743, 2.499133, 1.011448 
-0.167614, -0.039111, 1.005640, 2.498949, 1.005286 
-0.165724, -0.040643, 0.998469, 2.498989, 0.998138 
-0.163703, -0.033618, 0.991254, 2.499287, 0.991026 
-0.161582, -0.020596, 0.985374, 2.499737, 0.985294 
-0.159427, -0.005185, 0.982199, 2.500147, 0.982251 
-0.157312, 0.008041, 0.982464, 2.500405, 0.982599 
-0.155236, 0.019063, 0.985904, 2.500553, 0.986088 
-0.153202, 0.027605, 0.991706, 2.500628, 0.991915 
-0.151212, 0.034094, 0.998750, 2.500653, 0.998969 
-0.149320, 0.037099, 1.005685, 2.500611, 1.005889 
-0.147458, 0.037864, 1.011691, 2.500574, 1.011882 
-0.145610, 0.037541, 1.015940, 2.500545, 1.016121 
-0.144224, 0.011024, 1.017633, 2.500317, 1.017735 
-0.142715, -0.009858, 1.017422, 2.499920, 1.017391 
-0.141115, -0.025239, 1.015078, 2.499479, 1.014894 
-0.139412, -0.035373, 1.010681, 2.499133, 1.010386 
-0.137612, -0.041244, 1.004642, 2.498969, 1.004300 
-0.135686, -0.039590, 0.997676, 2.499064, 0.997371 
-0.133662, -0.031984, 0.990903, 2.499365, 0.990701 
-0.131540, -0.018483, 0.985542, 2.499804, 0.985483 
-0.129392, -0.003475, 0.982846, 2.500184, 0.982910 
-0.127285, 0.009340, 0.983432, 2.500420, 0.983572 
-0.125224, 0.019295, 0.986981, 2.500549, 0.987164 
-0.123202, 0.027871, 0.992658, 2.500610, 0.992861 
-0.121273, 0.032715, 0.999237, 2.500586, 0.999431 
-0.119382, 0.035069, 1.005801, 2.500556, 1.005984 
-0.117504, 0.036365, 1.011458, 2.500531, 1.011633 
-0.115641, 0.036478, 1.015388, 2.500513, 1.015557 
-0.114230, 0.010485, 1.016875, 2.500305, 1.016973 
-0.112720, -0.010489, 1.016507, 2.499907, 1.016470 
-0.111128, -0.026481, 1.014130, 2.499450, 1.013942 
-0.109407, -0.036826, 1.009781, 2.499142, 1.009494 
-0.107578, -0.040630, 1.003927, 2.499027, 1.003608 
-0.105651, -0.038529, 0.997348, 2.499128, 0.997066 
-0.103626, -0.030512, 0.991031, 2.499428, 0.990849 
-0.101504, -0.016762, 0.986102, 2.499854, 0.986058 
-0.099365, -0.002132, 0.983722, 2.500209, 0.983794 
-0.097276, 0.009652, 0.984419, 2.500416, 0.984557 
-0.095222, 0.019937, 0.987859, 2.500535, 0.988036 
-0.093256, 0.026693, 0.993113, 2.500544, 0.993291 
-0.091335, 0.030681, 0.999281, 2.500529, 0.999454 
-0.089427, 0.033640, 1.005486, 2.500514, 1.005653 
-0.087533, 0.035432, 1.010828, 2.500501, 1.010991 
-0.085655, 0.035979, 1.014526, 2.500493, 1.014687 
-0.084235, 0.009997, 1.015901, 2.500294, 1.015994 
-0.082727, -0.010917, 1.015520, 2.499889, 1.015477 
-0.081107, -0.027074, 1.013210, 2.499478, 1.013034 
-0.079376, -0.036442, 1.009084, 2.499185, 1.008816 
-0.077547, -0.039943, 1.003593, 2.499075, 1.003293 
-0.075620, -0.037519, 0.997435, 2.499180, 0.997171 
-0.073596, -0.029245, 0.991521, 2.499476, 0.991354 
-0.071477, -0.015435, 0.986899, 2.499888, 0.986866 
-0.069354, -0.001596, 0.984665, 2.500212, 0.984737 
-0.067275, 0.009722, 0.985286, 2.500406, 0.985422 
-0.065271, 0.018930, 0.988366, 2.500467, 0.988519 
-0.063319, 0.024592, 0.993187, 2.500482, 0.993343 
-0.061380, 0.029263, 0.998976, 2.500486, 0.999132 
-0.059455, 0.032782, 1.004854, 2.500484, 1.005010 
-0.057545, 0.035072, 1.009965, 2.500482, 1.010121 
-0.055651, 0.036051, 1.013546, 2.500484, 1.013704 
-0.054248, 0.008463, 1.014922, 2.500288, 1.015014 
-0.052707, -0.011560, 1.014676, 2.499931, 1.014650 
-0.051076, -0.026704, 1.012643, 2.499542, 1.012491 
-0.049347, -0.036008, 1.008955, 2.499247, 1.008709 
-0.047521, -0.039375, 1.003988, 2.499121, 1.003703 
-0.045597, -0.036889, 0.998348, 2.499193, 0.998089 
-0.043577, -0.028622, 0.992829, 2.499449, 0.992653 
-0.041464, -0.014954, 0.988348, 2.499834, 0.988297 
-0.039344, -0.000995, 0.985848, 2.500146, 0.985898 
-0.037292, 0.010755, 0.985621, 2.500303, 0.985718 
-0.035321, 0.017523, 0.987265, 2.500361, 0.987379 
-0.033360, 0.023455, 0.990215, 2.500402, 0.990341 
-0.031412, 0.028381, 0.993792, 2.500429, 0.993927 
-0.029492, 0.031775, 0.997261, 2.500437, 0.997399 
-0.027552, 0.035003, 1.000028, 2.500466, 1.000177 
-0.025970, 0.015291, 1.001331, 2.500318, 1.001434 
-0.024374, -0.001180, 1.001160, 2.499988, 1.001156 
-0.022671, -0.012132, 0.999017, 2.499700, 0.998921 
-0.020969, -0.022241, 0.994525, 2.499293, 0.994298 
-0.019062, -0.020580, 0.986689, 2.499289, 0.986462 
-0.017075, -0.014198, 0.975011, 2.499435, 0.974832 
-0.015027, -0.004169, 0.958617, 2.499678, 0.958516 
-0.013058, 0.001581, 0.937445, 2.499816, 0.937387 
-0.010945, 0.014809, 0.908330, 2.500105, 0.908361 
-0.008906, 0.024435, 0.872634, 2.500262, 0.872708 
-0.006921, 0.030910, 0.830457, 2.500375, 0.830557 
-0.004981, 0.035893, 0.782706, 2.500429, 0.782814 
-0.002984, 0.042607, 0.727848, 2.500523, 0.727971 
-0.000992, 0.048605, 0.668397, 2.500619, 0.668531 
0.000824, 0.044939, 0.610462, 1.795507, 0.438413 
0.008255, 0.034066, 0.397167, 1.795559, 0.285239 
0.015325, 0.003881, 0.285330, 1.795038, 0.204871 
0.022571, -0.015080, 0.253640, 1.794825, 0.182100 
0.030098, -0.016672, 0.247820, 1.794746, 0.177914 
0.037831, -0.007825, 0.245246, 1.794844, 0.176074 
0.045530, -0.002338, 0.244521, 1.794980, 0.175564 
0.053231, 0.004035, 0.244709, 1.795061, 0.175706 
0.060928, 0.010041, 0.245398, 1.795113, 0.176205 
0.068583, 0.012903, 0.246447, 1.795118, 0.176959 
0.076146, 0.011985, 0.247312, 1.795038, 0.177573 
0.083700, 0.010159, 0.247585, 1.794990, 0.177765 
0.091264, 0.008569, 0.247441, 1.794981, 0.177661 
0.098844, 0.007360, 0.247398, 1.794996, 0.177631 
0.106424, 0.006005, 0.248012, 1.795002, 0.178073 
0.114002, 0.004554, 0.249200, 1.795001, 0.178925 
0.121375, -0.009868, 0.249739, 1.795024, 0.179315 
0.128805, -0.019255, 0.248735, 1.794961, 0.178589 
0.136372, -0.020521, 0.246820, 1.794889, 0.177208 
0.144052, -0.015096, 0.245306, 1.794891, 0.176121 
0.151754, -0.008653, 0.244661, 1.794948, 0.175663 
0.159455, -0.002318, 0.244566, 1.794998, 0.175598 
0.167154, 0.003899, 0.244780, 1.795054, 0.175756 
0.174843, 0.009164, 0.245410, 1.795105, 0.176213 
0.182503, 0.012549, 0.246408, 1.795117, 0.176931 
0.190071, 0.012071, 0.247259, 1.795040, 0.177535 
0.197628, 0.010547, 0.247553, 1.794993, 0.177742 
0.205192, 0.008941, 0.247437, 1.794981, 0.177658 
0.212771, 0.007605, 0.247408, 1.794996, 0.177639 
0.220350, 0.006187, 0.248024, 1.795002, 0.178081 
0.227927, 0.004674, 0.249207, 1.795001, 0.178930 
0.235301, -0.009737, 0.249744, 1.795024, 0.179318 
0.242730, -0.019148, 0.248742, 1.794962, 0.178594 
0.250297, -0.020464, 0.246830, 1.794890, 0.177216 
0.257976, -0.015114, 0.245321, 1.794893, 0.176132 
0.265677, -0.008747, 0.244686, 1.794949, 0.175680 
0.273377, -0.002487, 0.244599, 1.794999, 0.175622 
0.281070, 0.003170, 0.244797, 1.795047, 0.175768 
0.288761, 0.008538, 0.245384, 1.795099, 0.176194 
0.296425, 0.012438, 0.246355, 1.795119, 0.176892 
0.303998, 0.012360, 0.247214, 1.795045, 0.177503 
0.311556, 0.010970, 0.247536, 1.794995, 0.177730 
0.319119, 0.009227, 0.247442, 1.794982, 0.177662 
0.326698, 0.007830, 0.247420, 1.794995, 0.177647 
0.334275, 0.006356, 0.248034, 1.795002, 0.178088 
0.341852, 0.004769, 0.249213, 1.795000, 0.178935 
0.349226, -0.009629, 0.249748, 1.795023, 0.179321 
0.356655, -0.019052, 0.248747, 1.794962, 0.178598 
0.364222, -0.020406, 0.246840, 1.794892, 0.177223 
0.371900, -0.015129, 0.245338, 1.794894, 0.176144 
0.379601, -0.008840, 0.244711, 1.794950, 0.175698 
0.387297, -0.002857, 0.244621, 1.794995, 0.175637 
0.394990, 0.002703, 0.244798, 1.795042, 0.175769 
0.402680, 0.008121, 0.245356, 1.795096, 0.176173 
0.410349, 0.012420, 0.246312, 1.795121, 0.176862 
0.417925, 0.012658, 0.247183, 1.795049, 0.177481 
0.425484, 0.011258, 0.247527, 1.794997, 0.177724 
0.433046, 0.009473, 0.247448, 1.794982, 0.177666 
0.440624, 0.008026, 0.247431, 1.794995, 0.177655 
0.448201, 0.006467, 0.248044, 1.795001, 0.178096 
0.455776, 0.004795, 0.249218, 1.795000, 0.178939 
0.463151, -0.009559, 0.249749, 1.795023, 0.179322 
0.470580, -0.018963, 0.248749, 1.794963, 0.178599 
0.478147, -0.020346, 0.246846, 1.794893, 0.177227 
0.485824, -0.015146, 0.245350, 1.794895, 0.176153 
0.493525, -0.008852, 0.244731, 1.794951, 0.175713 
0.501219, -0.003133, 0.244641, 1.794993, 0.175651 
0.508909, 0.002327, 0.244800, 1.795037, 0.175769 
