position,velocity,density,energy,pressure
-0.600556, -0.033403, 0.540425, 2.499837, 0.540396 
-0.598995, -0.052764, 0.608785, 2.499405, 0.608668 
-0.597268, -0.062171, 0.677026, 2.499036, 0.676817 
-0.595423, -0.064252, 0.741161, 2.498851, 0.740889 
-0.593486, -0.060591, 0.798370, 2.498876, 0.798084 
-0.591472, -0.052092, 0.846949, 2.499097, 0.846706 
-0.589390, -0.039225, 0.886274, 2.499471, 0.886125 
-0.587244, -0.022354, 0.916793, 2.499927, 0.916771 
-0.585100, -0.005766, 0.939643, 2.500295, 0.939731 
-0.583005, 0.007718, 0.956976, 2.500525, 0.957136 
-0.580953, 0.018507, 0.970711, 2.500661, 0.970916 
-0.578940, 0.026883, 0.981945, 2.500735, 0.982177 
-0.576961, 0.033057, 0.991230, 2.500771, 0.991476 
-0.575019, 0.037045, 0.998736, 2.500785, 0.998988 
-0.573103, 0.039365, 1.004403, 2.500792, 1.004658 
-0.571614, 0.015789, 1.007608, 2.500651, 1.007819 
-0.570069, -0.004471, 1.009239, 2.500301, 1.009336 
-0.568446, -0.020016, 1.009153, 2.499887, 1.009117 
-0.566739, -0.030416, 1.007388, 2.499528, 1.007237 
-0.564899, -0.032072, 1.004166, 2.499392, 1.003969 
-0.563000, -0.030657, 1.000080, 2.499404, 0.999889 
-0.561032, -0.024699, 0.995869, 2.499564, 0.995728 
-0.558980, -0.013604, 0.992373, 2.499845, 0.992321 
-0.556909, -0.001632, 0.990488, 2.500096, 0.990517 
-0.554865, 0.008666, 0.990639, 2.500259, 0.990721 
-0.552847, 0.017276, 0.992687, 2.500357, 0.992801 
-0.550857, 0.024204, 0.996141, 2.500410, 0.996273 
-0.548893, 0.029470, 1.000320, 2.500435, 1.000461 
-0.546957, 0.032940, 1.004463, 2.500447, 1.004608 
-0.545044, 0.035126, 1.007832, 2.500452, 1.007979 
-0.543562, 0.011017, 1.009600, 2.500312, 1.009702 
-0.541987, -0.007410, 1.010112, 2.500010, 1.010116 
-0.540334, -0.020972, 1.009170, 2.499680, 1.009067 
-0.538599, -0.029559, 1.006810, 2.499417, 1.006623 
-0.536742, -0.030538, 1.003238, 2.499369, 1.003033 
-0.534869, -0.030530, 0.999095, 2.499373, 0.998894 
-0.532910, -0.024796, 0.994958, 2.499542, 0.994810 
-0.530854, -0.013375, 0.991620, 2.499842, 0.991567 
-0.528782, -0.001402, 0.989950, 2.500098, 0.989980 
-0.526738, 0.008855, 0.990314, 2.500261, 0.990396 
-0.524721, 0.017408, 0.992531, 2.500358, 0.992646 
-0.522730, 0.024284, 0.996099, 2.500410, 0.996231 
-0.520770, 0.029254, 1.000336, 2.500437, 1.000477 
-0.518833, 0.032825, 1.004506, 2.500448, 1.004651 
-0.516922, 0.034909, 1.007874, 2.500451, 1.008021 
-0.515439, 0.010684, 1.009633, 2.500312, 1.009734 
-0.513866, -0.007842, 1.010125, 2.500006, 1.010128 
-0.512212, -0.021384, 1.009160, 2.499672, 1.009056 
-0.510477, -0.029848, 1.006780, 2.499409, 1.006591 
-0.508617, -0.030601, 1.003195, 2.499366, 1.002989 
-0.506738, -0.029594, 0.999049, 2.499376, 0.998849 
-0.504782, -0.024561, 0.994917, 2.499548, 0.994770 
-0.502726, -0.013116, 0.991589, 2.499847, 0.991537 
-0.500655, -0.001220, 0.989934, 2.500100, 0.989964 
-0.498611, 0.008974, 0.990312, 2.500262, 0.990395 
-0.496594, 0.017488, 0.992541, 2.500358, 0.992655 
-0.494608, 0.023991, 0.996112, 2.500412, 0.996244 
-0.492645, 0.029106, 1.000352, 2.500439, 1.000494 
-0.490708, 0.032780, 1.004522, 2.500449, 1.004668 
-0.488796, 0.034930, 1.007886, 2.500452, 1.008033 
-0.487315, 0.010492, 1.009638, 2.500312, 1.009740 
-0.485743, -0.008125, 1.010125, 2.500003, 1.010127 
-0.484089, -0.021653, 1.009155, 2.499667, 1.009050 
-0.482352, -0.029958, 1.006771, 2.499405, 1.006581 
-0.480491, -0.030557, 1.003183, 2.499365, 1.002977 
-0.478612, -0.029480, 0.999037, 2.499377, 0.998837 
-0.476655, -0.024412, 0.994906, 2.499550, 0.994760 
-0.474599, -0.012991, 0.991582, 2.499848, 0.991531 
-0.472528, -0.001144, 0.989931, 2.500100, 0.989961 
-0.470485, 0.009026, 0.990312, 2.500263, 0.990395 
-0.468473, 0.017083, 0.992538, 2.500360, 0.992653 
-0.466484, 0.023771, 0.996109, 2.500415, 0.996242 
-0.464521, 0.029029, 1.000349, 2.500442, 1.000492 
-0.462582, 0.032811, 1.004519, 2.500452, 1.004665 
-0.460670, 0.035038, 1.007883, 2.500454, 1.008031 
-0.459191, 0.010409, 1.009635, 2.500312, 1.009737 
-0.457619, -0.008293, 1.010123, 2.500000, 1.010125 
-0.455964, -0.021715, 1.009157, 2.499663, 1.009050 
-0.454226, -0.029885, 1.006775, 2.499404, 1.006584 
-0.452364, -0.030435, 1.003189, 2.499365, 1.002983 
-0.450485, -0.029367, 0.999045, 2.499376, 0.998845 
-0.448529, -0.024344, 0.994915, 2.499548, 0.994767 
-0.446473, -0.012987, 0.991588, 2.499846, 0.991536 
-0.444403, -0.001153, 0.989931, 2.500100, 0.989961 
-0.442365, 0.008472, 0.990302, 2.500261, 0.990385 
-0.440350, 0.016752, 0.992520, 2.500362, 0.992636 
-0.438360, 0.023618, 0.996086, 2.500418, 0.996220 
-0.436395, 0.029021, 1.000325, 2.500445, 1.000469 
-0.434455, 0.032930, 1.004498, 2.500455, 1.004645 
-0.432542, 0.035211, 1.007869, 2.500457, 1.008017 
-0.431065, 0.010409, 1.009627, 2.500313, 1.009729 
-0.429493, -0.008235, 1.010126, 2.499999, 1.010127 
-0.427837, -0.021532, 1.009169, 2.499662, 1.009062 
-0.426098, -0.029673, 1.006796, 2.499403, 1.006605 
-0.424237, -0.030258, 1.003217, 2.499364, 1.003011 
-0.422359, -0.029267, 0.999074, 2.499374, 0.998873 
-0.420403, -0.024363, 0.994940, 2.499544, 0.994792 
-0.418349, -0.013098, 0.991602, 2.499842, 0.991549 
-0.416285, -0.001900, 0.989929, 2.500092, 0.989957 
-0.414244, 0.007984, 0.990279, 2.500260, 0.990362 
-0.412227, 0.016477, 0.992482, 2.500365, 0.992598 
-0.410236, 0.023523, 0.996039, 2.500423, 0.996175 
-0.408269, 0.029099, 1.000279, 2.500450, 1.000424 
-0.406328, 0.033094, 1.004460, 2.500459, 1.004608 
-0.404415, 0.035432, 1.007846, 2.500461, 1.007996 
-0.402937, 0.010655, 1.009622, 2.500316, 1.009724 
-0.401364, -0.007873, 1.010139, 2.500001, 1.010141 
-0.399708, -0.021158, 1.009200, 2.499665, 1.009094 
-0.397970, -0.029356, 1.006842, 2.499405, 1.006651 
-0.396109, -0.030047, 1.003271, 2.499364, 1.003065 
-0.394232, -0.029197, 0.999130, 2.499370, 0.998928 
-0.392279, -0.024470, 0.994986, 2.499537, 0.994836 
-0.390233, -0.014089, 0.991632, 2.499825, 0.991575 
-0.388166, -0.002597, 0.989926, 2.500086, 0.989953 
-0.386123, 0.007533, 0.990247, 2.500260, 0.990329 
-0.384104, 0.016241, 0.992427, 2.500368, 0.992544 
-0.382110, 0.023507, 0.995972, 2.500428, 0.996108 
-0.380142, 0.029199, 1.000211, 2.500455, 1.000357 
-0.378201, 0.033284, 1.004402, 2.500465, 1.004552 
-0.376287, 0.035682, 1.007808, 2.500466, 1.007958 
-0.374808, 0.011085, 1.009605, 2.500319, 1.009708 
-0.373234, -0.007390, 1.010145, 2.500005, 1.010148 
-0.371578, -0.020698, 1.009228, 2.499669, 1.009123 
-0.369840, -0.028971, 1.006888, 2.499408, 1.006698 
-0.367981, -0.029786, 1.003330, 2.499364, 1.003124 
-0.366106, -0.029091, 0.999192, 2.499367, 0.998989 
-0.364159, -0.025085, 0.995045, 2.499521, 0.994891 
-0.362115, -0.014929, 0.991671, 2.499810, 0.991611 
-0.360046, -0.003180, 0.989936, 2.500080, 0.989962 
-0.358000, 0.007181, 0.990230, 2.500261, 0.990313 
-0.355979, 0.016135, 0.992392, 2.500372, 0.992509 
-0.353984, 0.023528, 0.995929, 2.500432, 0.996066 
-0.352016, 0.029324, 1.000168, 2.500460, 1.000315 
-0.350073, 0.033490, 1.004369, 2.500469, 1.004520 
-0.348159, 0.035914, 1.007791, 2.500471, 1.007943 
-0.346678, 0.011471, 1.009606, 2.500322, 1.009710 
-0.345104, -0.006954, 1.010162, 2.500009, 1.010166 
-0.343448, -0.020268, 1.009260, 2.499673, 1.009156 
-0.341711, -0.028597, 1.006930, 2.499412, 1.006741 
-0.339857, -0.029520, 1.003383, 2.499352, 1.003178 
-0.337981, -0.029179, 0.999233, 2.499360, 0.999028 
-0.336037, -0.025483, 0.995073, 2.499509, 0.994917 
-0.333996, -0.015557, 0.991677, 2.499797, 0.991614 
-0.331924, -0.003599, 0.989912, 2.500076, 0.989937 
-0.329876, 0.007020, 0.990180, 2.500261, 0.990263 
-0.327854, 0.016100, 0.992322, 2.500375, 0.992440 
-0.325858, 0.023598, 0.995848, 2.500436, 0.995986 
-0.323889, 0.029479, 1.000087, 2.500464, 1.000234 
-0.321946, 0.033662, 1.004295, 2.500474, 1.004446 
-0.320032, 0.036082, 1.007732, 2.500475, 1.007885 
-0.318550, 0.011776, 1.009564, 2.500325, 1.009669 
-0.316975, -0.006601, 1.010139, 2.500013, 1.010144 
-0.315319, -0.019915, 1.009256, 2.499677, 1.009152 
-0.313583, -0.028301, 1.006944, 2.499415, 1.006755 
-0.311729, -0.029235, 1.003411, 2.499355, 1.003206 
-0.309852, -0.029232, 0.999263, 2.499367, 0.999058 
-0.307914, -0.025790, 0.995118, 2.499499, 0.994959 
-0.305875, -0.016016, 0.991715, 2.499788, 0.991650 
-0.303801, -0.003835, 0.989936, 2.500073, 0.989960 
-0.301752, 0.006914, 0.990189, 2.500261, 0.990271 
-0.299729, 0.016104, 0.992318, 2.500375, 0.992436 
-0.297732, 0.023696, 0.995835, 2.500437, 0.995973 
-0.295762, 0.029588, 1.000069, 2.500465, 1.000217 
-0.293820, 0.033750, 1.004277, 2.500475, 1.004429 
-0.291906, 0.036164, 1.007720, 2.500476, 1.007873 
-0.290422, 0.011982, 1.009560, 2.500326, 1.009665 
-0.288847, -0.006343, 1.010145, 2.500015, 1.010150 
-0.287191, -0.019667, 1.009272, 2.499680, 1.009169 
-0.285452, -0.027697, 1.006965, 2.499426, 1.006780 
-0.283602, -0.029036, 1.003442, 2.499358, 1.003238 
-0.281727, -0.029314, 0.999299, 2.499363, 0.999093 
-0.279791, -0.026051, 0.995152, 2.499492, 0.994992 
-0.277752, -0.016284, 0.991741, 2.499783, 0.991675 
-0.275677, -0.004007, 0.989951, 2.500070, 0.989974 
-0.273627, 0.006858, 0.990192, 2.500260, 0.990275 
-0.271603, 0.016152, 0.992313, 2.500375, 0.992431 
-0.269606, 0.023750, 0.995826, 2.500437, 0.995964 
-0.267636, 0.029604, 1.000059, 2.500465, 1.000207 
-0.265694, 0.033745, 1.004271, 2.500474, 1.004423 
-0.263780, 0.036151, 1.007721, 2.500476, 1.007874 
-0.262296, 0.012090, 1.009569, 2.500326, 1.009674 
-0.260720, -0.006202, 1.010161, 2.500016, 1.010167 
-0.259057, -0.018812, 1.009292, 2.499694, 1.009192 
-0.257322, -0.027284, 1.006991, 2.499435, 1.006808 
-0.255484, -0.029807, 1.003479, 2.499351, 1.003267 
-0.253603, -0.029449, 0.999325, 2.499362, 0.999119 
-0.251668, -0.026252, 0.995173, 2.499490, 0.995012 
-0.249628, -0.016491, 0.991755, 2.499781, 0.991688 
-0.247552, -0.004111, 0.989957, 2.500070, 0.989980 
-0.245501, 0.006869, 0.990193, 2.500260, 0.990276 
-0.243477, 0.016164, 0.992315, 2.500374, 0.992434 
-0.241481, 0.023709, 0.995837, 2.500435, 0.995975 
-0.239511, 0.029529, 1.000085, 2.500463, 1.000233 
-0.237570, 0.033647, 1.004314, 2.500472, 1.004466 
-0.235656, 0.036044, 1.007778, 2.500473, 1.007931 
-0.234170, 0.012072, 1.009624, 2.500312, 1.009725 
-0.232585, -0.005151, 1.010178, 2.499999, 1.010177 
-0.230927, -0.018243, 1.009214, 2.499663, 1.009103 
-0.229195, -0.027120, 1.006749, 2.499391, 1.006552 
-0.227367, -0.030700, 1.002997, 2.499288, 1.002770 
-0.225496, -0.031291, 0.998519, 2.499286, 0.998297 
-0.223556, -0.028013, 0.993939, 2.499436, 0.993766 
-0.221507, -0.017290, 0.990024, 2.499756, 0.989949 
-0.219429, -0.004617, 0.987736, 2.500060, 0.987756 
-0.217375, 0.006890, 0.987649, 2.500257, 0.987731 
-0.215352, 0.016118, 0.989720, 2.500374, 0.989838 
-0.213356, 0.023611, 0.993520, 2.500436, 0.993658 
-0.211387, 0.029389, 0.998391, 2.500463, 0.998538 
-0.209446, 0.033478, 1.003565, 2.500471, 1.003716 
-0.207532, 0.035854, 1.008252, 2.500472, 1.008404 
-0.205706, 0.034624, 1.011653, 2.500429, 1.011790 
-0.204209, 0.011571, 1.013279, 2.500267, 1.013362 
-0.202636, -0.007105, 1.013381, 2.499954, 1.013362 
-0.200972, -0.020615, 1.011807, 2.499632, 1.011684 
-0.199229, -0.029269, 1.008644, 2.499381, 1.008439 
-0.197417, -0.033864, 1.004237, 2.499246, 1.003996 
-0.195527, -0.032663, 0.999142, 2.499265, 0.998908 
-0.193563, -0.027976, 0.994072, 2.499454, 0.993901 
-0.191515, -0.018115, 0.989902, 2.499772, 0.989836 
-0.189432, -0.005115, 0.987545, 2.500079, 0.987574 
-0.187379, 0.005778, 0.987505, 2.500276, 0.987594 
-0.185352, 0.015360, 0.989661, 2.500392, 0.989786 
-0.183354, 0.023116, 0.993526, 2.500452, 0.993670 
-0.181385, 0.029064, 0.998402, 2.500478, 0.998555 
-0.179447, 0.033035, 1.003485, 2.500483, 1.003641 
-0.177595, 0.033531, 1.007879, 2.500440, 1.008019 
-0.175759, 0.032613, 1.011091, 2.500405, 1.011219 
-0.174250, 0.009865, 1.012535, 2.500239, 1.012608 
-0.172662, -0.007985, 1.012459, 2.499930, 1.012431 
-0.170981, -0.020854, 1.010733, 2.499628, 1.010606 
-0.169237, -0.030382, 1.007498, 2.499378, 1.007301 
-0.167419, -0.033530, 1.003134, 2.499246, 1.002890 
-0.165521, -0.034024, 0.998166, 2.499299, 0.997948 
-0.163535, -0.027835, 0.993373, 2.499518, 0.993227 
-0.161479, -0.016793, 0.989621, 2.499835, 0.989575 
-0.159401, -0.003935, 0.987706, 2.500119, 0.987748 
-0.157352, 0.007111, 0.988027, 2.500298, 0.988123 
-0.155331, 0.016338, 0.990409, 2.500401, 0.990537 
-0.153340, 0.023609, 0.994344, 2.500453, 0.994489 
-0.151383, 0.028971, 0.999116, 2.500470, 0.999267 
-0.149505, 0.031171, 1.003844, 2.500431, 1.003981 
-0.147648, 0.031610, 1.007955, 2.500398, 1.008080 
-0.145798, 0.031139, 1.010868, 2.500373, 1.010984 
-0.144279, 0.008562, 1.012067, 2.500206, 1.012128 
-0.142666, -0.008937, 1.011776, 2.499926, 1.011745 
-0.140988, -0.021536, 1.009924, 2.499609, 1.009795 
-0.139235, -0.029751, 1.006667, 2.499371, 1.006461 
-0.137405, -0.034595, 1.002371, 2.499279, 1.002144 
-0.135488, -0.032945, 0.997635, 2.499358, 0.997438 
-0.133502, -0.026469, 0.993210, 2.499574, 0.993083 
-0.131447, -0.015200, 0.989855, 2.499880, 0.989823 
-0.129375, -0.002645, 0.988283, 2.500145, 0.988333 
-0.127331, 0.008096, 0.988820, 2.500309, 0.988920 
-0.125320, 0.016571, 0.991262, 2.500400, 0.991391 
-0.123341, 0.023580, 0.995081, 2.500439, 0.995222 
-0.121436, 0.027445, 0.999503, 2.500413, 0.999633 
-0.119557, 0.029271, 1.003920, 2.500384, 1.004040 
-0.117686, 0.030205, 1.007727, 2.500362, 1.007838 
-0.115823, 0.030171, 1.010369, 2.500347, 1.010475 
-0.114282, 0.008308, 1.011388, 2.500195, 1.011445 
-0.112668, -0.009091, 1.010986, 2.499915, 1.010953 
-0.110995, -0.022989, 1.009131, 2.499599, 1.009000 
-0.109223, -0.030848, 1.005963, 2.499396, 1.005771 
-0.107375, -0.033789, 1.001896, 2.499329, 1.001688 
-0.105458, -0.031933, 0.997508, 2.499408, 0.997328 
-0.103473, -0.025272, 0.993460, 2.499619, 0.993347 
-0.101421, -0.013897, 0.990437, 2.499914, 0.990416 
-0.099354, -0.001629, 0.989089, 2.500161, 0.989143 
-0.097325, 0.008165, 0.989689, 2.500306, 0.989788 
-0.095321, 0.016812, 0.992020, 2.500386, 0.992143 
-0.093390, 0.022303, 0.995509, 2.500382, 0.995628 
-0.091489, 0.025544, 0.999590, 2.500363, 0.999702 
-0.089595, 0.027911, 1.003685, 2.500348, 1.003790 
-0.087710, 0.029320, 1.007207, 2.500336, 1.007309 
-0.085835, 0.029722, 1.009642, 2.500329, 1.009741 
-0.084285, 0.008164, 1.010560, 2.500184, 1.010612 
-0.082672, -0.009645, 1.010157, 2.499901, 1.010121 
-0.080971, -0.022590, 1.008391, 2.499628, 1.008271 
-0.079193, -0.030185, 1.005444, 2.499438, 1.005269 
-0.077347, -0.033007, 1.001699, 2.499372, 1.001507 
-0.075432, -0.031017, 0.997662, 2.499448, 0.997496 
-0.073450, -0.024260, 0.993927, 2.499653, 0.993825 
-0.071400, -0.012887, 0.991126, 2.499937, 0.991111 
-0.069346, -0.001338, 0.989860, 2.500163, 0.989915 
-0.067323, 0.008349, 0.990375, 2.500298, 0.990471 
-0.065366, 0.015682, 0.992420, 2.500327, 0.992521 
-0.063442, 0.020362, 0.995564, 2.500328, 0.995664 
-0.061526, 0.024192, 0.999319, 2.500326, 0.999417 
-0.059619, 0.027074, 1.003133, 2.500322, 1.003229 
-0.057721, 0.028959, 1.006457, 2.500320, 1.006553 
-0.055832, 0.029796, 1.008801, 2.500322, 1.008898 
-0.054290, 0.006769, 1.009742, 2.500184, 1.009795 
-0.052649, -0.009563, 1.009482, 2.499940, 1.009459 
-0.050942, -0.021935, 1.007986, 2.499682, 1.007886 
-0.049167, -0.029555, 1.005424, 2.499489, 1.005267 
-0.047324, -0.032358, 1.002109, 2.499409, 1.001930 
-0.045413, -0.030397, 0.998472, 2.499460, 0.998311 
-0.043434, -0.023717, 0.995021, 2.499635, 0.994913 
-0.041389, -0.012490, 0.992296, 2.499899, 0.992269 
-0.039339, -0.000776, 0.990805, 2.500113, 0.990844 
-0.037345, 0.008783, 0.990691, 2.500208, 0.990755 
-0.035408, 0.014391, 0.991721, 2.500239, 0.991792 
-0.033477, 0.019269, 0.993554, 2.500262, 0.993630 
-0.031554, 0.023316, 0.995774, 2.500279, 0.995854 
-0.029651, 0.026034, 0.997925, 2.500282, 0.998006 
-0.027727, 0.028814, 0.999629, 2.500305, 0.999718 
-0.026047, 0.013380, 1.000424, 2.500210, 1.000486 
-0.024368, -0.000338, 1.000102, 2.499988, 1.000097 
-0.022611, -0.009347, 0.998197, 2.499798, 0.998135 
-0.020857, -0.017865, 0.994258, 2.499521, 0.994113 
-0.018959, -0.016659, 0.987436, 2.499518, 0.987291 
-0.017004, -0.011558, 0.977065, 2.499616, 0.976950 
-0.015006, -0.003427, 0.962126, 2.499780, 0.962062 
-0.013066, 0.001094, 0.942041, 2.499871, 0.942003 
-0.011019, 0.012251, 0.914199, 2.500074, 0.914221 
-0.009028, 0.020449, 0.879310, 2.500180, 0.879359 
-0.007076, 0.026113, 0.837410, 2.500252, 0.837473 
-0.005161, 0.029885, 0.789413, 2.500287, 0.789481 
-0.003197, 0.035576, 0.734303, 2.500352, 0.734381 
-0.001235, 0.040710, 0.674365, 2.500422, 0.674452 
0.000599, 0.037855, 0.614628, 1.795349, 0.441369 
0.008085, 0.029861, 0.395611, 1.795380, 0.284093 
0.015306, 0.004405, 0.281728, 1.795032, 0.202284 
0.022646, -0.012164, 0.251854, 1.794894, 0.180825 
0.030181, -0.013879, 0.247631, 1.794826, 0.177786 
0.037870, -0.007108, 0.245868, 1.794892, 0.176526 
0.045542, -0.002190, 0.245330, 1.794984, 0.176145 
0.053211, 0.003007, 0.245444, 1.795041, 0.176231 
0.060878, 0.008007, 0.245917, 1.795079, 0.176574 
0.068519, 0.010756, 0.246648, 1.795086, 0.177100 
0.076086, 0.010002, 0.247244, 1.795025, 0.177523 
0.083649, 0.008426, 0.247395, 1.794989, 0.177629 
0.091221, 0.007019, 0.247240, 1.794984, 0.177517 
0.098808, 0.006020, 0.247162, 1.794996, 0.177462 
0.106393, 0.004940, 0.247531, 1.795002, 0.177727 
0.113979, 0.003798, 0.248302, 1.795001, 0.178281 
0.121425, -0.007592, 0.248694, 1.795017, 0.178564 
0.128901, -0.015545, 0.248084, 1.794976, 0.178123 
0.136475, -0.016813, 0.246859, 1.794928, 0.177240 
0.144127, -0.012576, 0.245869, 1.794927, 0.176529 
0.151798, -0.007333, 0.245436, 1.794963, 0.176220 
0.159466, -0.002166, 0.245362, 1.794996, 0.176169 
0.167134, 0.002931, 0.245496, 1.795035, 0.176268 
0.174798, 0.007483, 0.245927, 1.795074, 0.176582 
0.182440, 0.010528, 0.246632, 1.795086, 0.177089 
0.190011, 0.010045, 0.247219, 1.795026, 0.177505 
0.197575, 0.008657, 0.247379, 1.794991, 0.177617 
0.205147, 0.007244, 0.247237, 1.794984, 0.177515 
0.212733, 0.006170, 0.247166, 1.794996, 0.177465 
0.220319, 0.005049, 0.247536, 1.795002, 0.177731 
0.227904, 0.003872, 0.248306, 1.795001, 0.178284 
0.235350, -0.007513, 0.248696, 1.795016, 0.178565 
0.242826, -0.015480, 0.248087, 1.794976, 0.178125 
0.250399, -0.016777, 0.246864, 1.794928, 0.177243 
0.258051, -0.012584, 0.245876, 1.794927, 0.176534 
0.265721, -0.007386, 0.245447, 1.794964, 0.176228 
0.273389, -0.002264, 0.245377, 1.794996, 0.176180 
0.281055, 0.002511, 0.245504, 1.795032, 0.176275 
0.288718, 0.007096, 0.245917, 1.795071, 0.176574 
0.296363, 0.010445, 0.246608, 1.795086, 0.177071 
0.303936, 0.010209, 0.247197, 1.795028, 0.177489 
0.311501, 0.008909, 0.247369, 1.794992, 0.177610 
0.319073, 0.007420, 0.247239, 1.794984, 0.177516 
0.326659, 0.006306, 0.247172, 1.794996, 0.177469 
0.334244, 0.005152, 0.247541, 1.795002, 0.177735 
0.341828, 0.003931, 0.248309, 1.795001, 0.178286 
0.349274, -0.007448, 0.248698, 1.795016, 0.178567 
0.356751, -0.015421, 0.248090, 1.794977, 0.178127 
0.364324, -0.016741, 0.246868, 1.794929, 0.177246 
0.371975, -0.012591, 0.245884, 1.794928, 0.176539 
0.379645, -0.007439, 0.245459, 1.794964, 0.176237 
0.387312, -0.002476, 0.245388, 1.794995, 0.176188 
0.394976, 0.002227, 0.245507, 1.795029, 0.176276 
0.402639, 0.006835, 0.245905, 1.795069, 0.176566 
0.410287, 0.010427, 0.246588, 1.795087, 0.177057 
0.417861, 0.010384, 0.247181, 1.795030, 0.177478 
0.425427, 0.009087, 0.247364, 1.794993, 0.177607 
0.432999, 0.007568, 0.247241, 1.794984, 0.177518 
0.440584, 0.006425, 0.247177, 1.794996, 0.177473 
0.448168, 0.005221, 0.247546, 1.795002, 0.177739 
0.455752, 0.003949, 0.248312, 1.795001, 0.178288 
0.463199, -0.007407, 0.248699, 1.795016, 0.178567 
0.470675, -0.015368, 0.248090, 1.794977, 0.178127 
0.478248, -0.016703, 0.246871, 1.794929, 0.177248 
0.485899, -0.012599, 0.245889, 1.794929, 0.176543 
0.493569, -0.007443, 0.245468, 1.794965, 0.176243 
0.501234, -0.002643, 0.245398, 1.794994, 0.176195 
0.508898, 0.001994, 0.245508, 1.795027, 0.176277 
