position,velocity,density,energy,pressure
-0.600063, -0.009447, 0.541585, 2.499988, 0.541585 
-0.598222, -0.014623, 0.622542, 2.499959, 0.622542 
-0.596363, -0.016996, 0.698701, 2.499935, 0.698701 
-0.594491, -0.017404, 0.767555, 2.499923, 0.767555 
-0.592609, -0.016320, 0.827350, 2.499926, 0.827350 
-0.590718, -0.014013, 0.877078, 2.499940, 0.877078 
-0.588821, -0.010627, 0.916475, 2.499964, 0.916475 
-0.586916, -0.006240, 0.946024, 2.499994, 0.946024 
-0.585012, -0.001804, 0.966932, 2.500019, 0.966932 
-0.583112, 0.001846, 0.981004, 2.500034, 0.981004 
-0.581218, 0.004807, 0.989965, 2.500044, 0.989965 
-0.579327, 0.007145, 0.995275, 2.500049, 0.995275 
-0.577440, 0.008906, 0.998134, 2.500052, 0.998134 
-0.575557, 0.010088, 0.999490, 2.500053, 0.999490 
-0.573677, 0.010825, 1.000044, 2.500054, 1.000044 
-0.571845, 0.004417, 1.000253, 2.500045, 1.000253 
-0.570006, -0.001040, 1.000340, 2.500023, 1.000340 
-0.568158, -0.005175, 1.000341, 2.499996, 1.000341 
-0.566301, -0.007920, 1.000266, 2.499974, 1.000266 
-0.564430, -0.008415, 1.000134, 2.499960, 1.000134 
-0.562555, -0.008319, 0.999974, 2.499959, 0.999974 
-0.560670, -0.006855, 0.999814, 2.499969, 0.999814 
-0.558776, -0.004033, 0.999687, 2.499987, 0.999687 
-0.556879, -0.000763, 0.999617, 2.500005, 0.999617 
-0.554985, 0.002079, 0.999618, 2.500017, 0.999618 
-0.553094, 0.004487, 0.999687, 2.500024, 0.999687 
-0.551206, 0.006458, 0.999812, 2.500028, 0.999812 
-0.549321, 0.007988, 0.999970, 2.500030, 0.999970 
-0.547438, 0.009076, 1.000135, 2.500030, 1.000135 
-0.545559, 0.009757, 1.000278, 2.500030, 1.000278 
-0.543726, 0.003301, 1.000370, 2.500022, 1.000370 
-0.541885, -0.001707, 1.000397, 2.500002, 1.000397 
-0.540034, -0.005387, 1.000352, 2.499979, 1.000352 
-0.538175, -0.007746, 1.000246, 2.499962, 1.000246 
-0.536303, -0.007951, 1.000095, 2.499953, 1.000095 
-0.534430, -0.008502, 0.999924, 2.499956, 0.999924 
-0.532545, -0.006947, 0.999762, 2.499968, 0.999762 
-0.530651, -0.004071, 0.999637, 2.499987, 0.999637 
-0.528754, -0.000776, 0.999572, 2.500006, 0.999572 
-0.526860, 0.002076, 0.999580, 2.500017, 0.999580 
-0.524969, 0.004488, 0.999657, 2.500024, 0.999657 
-0.523080, 0.006459, 0.999789, 2.500028, 0.999789 
-0.521195, 0.007984, 0.999954, 2.500030, 0.999954 
-0.519313, 0.009074, 1.000124, 2.500031, 1.000124 
-0.517434, 0.009718, 1.000270, 2.500031, 1.000270 
-0.515601, 0.003295, 1.000366, 2.500023, 1.000366 
-0.513759, -0.001715, 1.000394, 2.500002, 1.000394 
-0.511909, -0.005394, 1.000351, 2.499980, 1.000351 
-0.510050, -0.007751, 1.000245, 2.499962, 1.000245 
-0.508178, -0.007953, 1.000094, 2.499953, 1.000094 
-0.506305, -0.008501, 0.999924, 2.499956, 0.999924 
-0.504419, -0.006944, 0.999762, 2.499968, 0.999762 
-0.502525, -0.004065, 0.999636, 2.499987, 0.999636 
-0.500628, -0.000773, 0.999572, 2.500006, 0.999572 
-0.498734, 0.002079, 0.999580, 2.500017, 0.999580 
-0.496843, 0.004490, 0.999657, 2.500024, 0.999657 
-0.494955, 0.006453, 0.999789, 2.500028, 0.999789 
-0.493070, 0.007982, 0.999954, 2.500030, 0.999954 
-0.491187, 0.009074, 1.000124, 2.500031, 1.000124 
-0.489308, 0.009719, 1.000270, 2.500031, 1.000270 
-0.487475, 0.003291, 1.000366, 2.500023, 1.000366 
-0.485634, -0.001720, 1.000394, 2.500002, 1.000394 
-0.483783, -0.005399, 1.000351, 2.499980, 1.000351 
-0.481924, -0.007753, 1.000245, 2.499962, 1.000245 
-0.480052, -0.007952, 1.000094, 2.499953, 1.000094 
-0.478179, -0.008499, 0.999924, 2.499956, 0.999924 
-0.476294, -0.006941, 0.999762, 2.499968, 0.999762 
-0.474400, -0.004063, 0.999636, 2.499987, 0.999636 
-0.472503, -0.000771, 0.999572, 2.500006, 0.999572 
-0.470609, 0.002080, 0.999580, 2.500017, 0.999580 
-0.468718, 0.004482, 0.999657, 2.500024, 0.999657 
-0.466829, 0.006449, 0.999789, 2.500028, 0.999789 
-0.464944, 0.007980, 0.999954, 2.500030, 0.999954 
-0.463062, 0.009074, 1.000124, 2.500031, 1.000124 
-0.461182, 0.009721, 1.000270, 2.500031, 1.000270 
-0.459350, 0.003290, 1.000366, 2.500023, 1.000366 
-0.457508, -0.001723, 1.000394, 2.500002, 1.000394 
-0.455658, -0.005400, 1.000351, 2.499980, 1.000351 
-0.453799, -0.007752, 1.000245, 2.499962, 1.000245 
-0.451926, -0.007950, 1.000094, 2.499953, 1.000094 
-0.450054, -0.008497, 0.999924, 2.499956, 0.999924 
-0.448168, -0.006940, 0.999762, 2.499968, 0.999762 
-0.446274, -0.004063, 0.999636, 2.499987, 0.999636 
-0.444377, -0.000771, 0.999572, 2.500006, 0.999572 
-0.442483, 0.002070, 0.999580, 2.500017, 0.999580 
-0.440592, 0.004476, 0.999657, 2.500025, 0.999657 
-0.438704, 0.006447, 0.999789, 2.500028, 0.999789 
-0.436819, 0.007980, 0.999954, 2.500030, 0.999954 
-0.434936, 0.009076, 1.000124, 2.500031, 1.000124 
-0.433057, 0.009724, 1.000270, 2.500031, 1.000270 
-0.431224, 0.003290, 1.000366, 2.500023, 1.000366 
-0.429383, -0.001722, 1.000394, 2.500002, 1.000394 
-0.427532, -0.005397, 1.000351, 2.499980, 1.000351 
-0.425673, -0.007748, 1.000245, 2.499962, 1.000245 
-0.423801, -0.007946, 1.000094, 2.499953, 1.000094 
-0.421928, -0.008494, 0.999924, 2.499956, 0.999924 
-0.420043, -0.006939, 0.999762, 2.499968, 0.999762 
-0.418149, -0.004065, 0.999636, 2.499987, 0.999636 
-0.416252, -0.000785, 0.999572, 2.500006, 0.999572 
-0.414358, 0.002061, 0.999580, 2.500017, 0.999580 
-0.412467, 0.004471, 0.999657, 2.500025, 0.999657 
-0.410578, 0.006445, 0.999789, 2.500028, 0.999789 
-0.408693, 0.007981, 0.999954, 2.500030, 0.999954 
-0.406811, 0.009079, 1.000124, 2.500031, 1.000124 
-0.404931, 0.009728, 1.000270, 2.500031, 1.000270 
-0.403099, 0.003295, 1.000366, 2.500023, 1.000366 
-0.401257, -0.001715, 1.000394, 2.500002, 1.000394 
-0.399407, -0.005390, 1.000351, 2.499980, 1.000351 
-0.397547, -0.007742, 1.000245, 2.499962, 1.000245 
-0.395675, -0.007942, 1.000094, 2.499953, 1.000094 
-0.393803, -0.008492, 0.999924, 2.499956, 0.999924 
-0.391917, -0.006941, 0.999762, 2.499968, 0.999762 
-0.390023, -0.004083, 0.999636, 2.499987, 0.999636 
-0.388126, -0.000798, 0.999572, 2.500005, 0.999572 
-0.386232, 0.002053, 0.999580, 2.500017, 0.999580 
-0.384341, 0.004467, 0.999657, 2.500025, 0.999657 
-0.382453, 0.006444, 0.999789, 2.500029, 0.999789 
-0.380568, 0.007983, 0.999954, 2.500030, 0.999954 
-0.378685, 0.009082, 1.000124, 2.500031, 1.000124 
-0.376806, 0.009732, 1.000270, 2.500031, 1.000270 
-0.374973, 0.003302, 1.000366, 2.500023, 1.000366 
-0.373132, -0.001706, 1.000394, 2.500002, 1.000394 
-0.371281, -0.005382, 1.000351, 2.499980, 1.000351 
-0.369422, -0.007735, 1.000245, 2.499962, 1.000245 
-0.367550, -0.007937, 1.000094, 2.499953, 1.000094 
-0.365677, -0.008490, 0.999924, 2.499956, 0.999924 
-0.363792, -0.006950, 0.999762, 2.499968, 0.999762 
-0.361898, -0.004098, 0.999636, 2.499987, 0.999636 
-0.360001, -0.000808, 0.999572, 2.500005, 0.999572 
-0.358107, 0.002046, 0.999580, 2.500017, 0.999580 
-0.356215, 0.004464, 0.999657, 2.500025, 0.999657 
-0.354327, 0.006444, 0.999789, 2.500029, 0.999789 
-0.352442, 0.007985, 0.999954, 2.500030, 0.999954 
-0.350560, 0.009086, 1.000124, 2.500031, 1.000124 
-0.348680, 0.009736, 1.000270, 2.500031, 1.000270 
-0.346848, 0.003309, 1.000366, 2.500023, 1.000366 
-0.345006, -0.001699, 1.000394, 2.500002, 1.000394 
-0.343156, -0.005374, 1.000351, 2.499980, 1.000351 
-0.341296, -0.007728, 1.000245, 2.499962, 1.000245 
-0.339424, -0.007932, 1.000094, 2.499953, 1.000094 
-0.337552, -0.008491, 0.999924, 2.499956, 0.999924 
-0.335666, -0.006957, 0.999762, 2.499968, 0.999762 
-0.333772, -0.004110, 0.999636, 2.499987, 0.999636 
-0.331875, -0.000815, 0.999572, 2.500005, 0.999572 
-0.329981, 0.002043, 0.999580, 2.500017, 0.999580 
-0.328090, 0.004463, 0.999657, 2.500025, 0.999657 
-0.326202, 0.006445, 0.999789, 2.500029, 0.999789 
-0.324316, 0.007987, 0.999954, 2.500030, 0.999954 
-0.322434, 0.009089, 1.000124, 2.500031, 1.000124 
-0.320555, 0.009739, 1.000270, 2.500031, 1.000270 
-0.318722, 0.003315, 1.000366, 2.500023, 1.000366 
-0.316880, -0.001692, 1.000394, 2.500002, 1.000394 
-0.315030, -0.005368, 1.000351, 2.499980, 1.000351 
-0.313171, -0.007723, 1.000245, 2.499962, 1.000245 
-0.311299, -0.007927, 1.000094, 2.499953, 1.000094 
-0.309426, -0.008492, 0.999924, 2.499956, 0.999924 
-0.307541, -0.006963, 0.999762, 2.499968, 0.999762 
-0.305647, -0.004118, 0.999636, 2.499987, 0.999636 
-0.303750, -0.000821, 0.999572, 2.500005, 0.999572 
-0.301856, 0.002040, 0.999580, 2.500017, 0.999580 
-0.299964, 0.004463, 0.999657, 2.500025, 0.999657 
-0.298076, 0.006447, 0.999789, 2.500029, 0.999789 
-0.296191, 0.007989, 0.999954, 2.500030, 0.999954 
-0.294308, 0.009090, 1.000124, 2.500031, 1.000124 
-0.292429, 0.009740, 1.000270, 2.500031, 1.000270 
-0.290596, 0.003318, 1.000366, 2.500023, 1.000366 
-0.288755, -0.001688, 1.000394, 2.500002, 1.000394 
-0.286904, -0.005363, 1.000351, 2.499980, 1.000351 
-0.285045, -0.007712, 1.000245, 2.499962, 1.000245 
-0.283173, -0.007924, 1.000094, 2.499953, 1.000094 
-0.281300, -0.008494, 0.999924, 2.499956, 0.999924 
-0.279415, -0.006968, 0.999762, 2.499968, 0.999762 
-0.277521, -0.004125, 0.999636, 2.499987, 0.999636 
-0.275624, -0.000824, 0.999572, 2.500005, 0.999572 
-0.273730, 0.002040, 0.999580, 2.500017, 0.999580 
-0.271839, 0.004464, 0.999657, 2.500025, 0.999657 
-0.269951, 0.006448, 0.999789, 2.500029, 0.999789 
-0.268065, 0.007990, 0.999954, 2.500030, 0.999954 
-0.266183, 0.009091, 1.000124, 2.500031, 1.000124 
-0.264304, 0.009741, 1.000270, 2.500031, 1.000270 
-0.262471, 0.003320, 1.000366, 2.500023, 1.000366 
-0.260629, -0.001685, 1.000394, 2.500002, 1.000394 
-0.258779, -0.005348, 1.000351, 2.499980, 1.000351 
-0.256920, -0.007705, 1.000245, 2.499962, 1.000245 
-0.255047, -0.007923, 1.000094, 2.499953, 1.000094 
-0.253175, -0.008497, 0.999924, 2.499955, 0.999924 
-0.251290, -0.006973, 0.999762, 2.499968, 0.999762 
-0.249396, -0.004129, 0.999636, 2.499987, 0.999636 
-0.247499, -0.000825, 0.999572, 2.500005, 0.999572 
-0.245604, 0.002040, 0.999580, 2.500017, 0.999580 
-0.243713, 0.004465, 0.999657, 2.500025, 0.999657 
-0.241825, 0.006448, 0.999789, 2.500029, 0.999789 
-0.239940, 0.007989, 0.999954, 2.500030, 0.999954 
-0.238057, 0.009089, 1.000124, 2.500031, 1.000124 
-0.236178, 0.009739, 1.000270, 2.500031, 1.000270 
-0.234345, 0.003321, 1.000366, 2.500023, 1.000366 
-0.232504, -0.001666, 1.000394, 2.500002, 1.000394 
-0.230653, -0.005338, 1.000351, 2.499980, 1.000351 
-0.228794, -0.007702, 1.000245, 2.499962, 1.000245 
-0.226922, -0.007925, 1.000094, 2.499953, 1.000094 
-0.225049, -0.008500, 0.999924, 2.499955, 0.999924 
-0.223164, -0.006976, 0.999762, 2.499968, 0.999762 
-0.221270, -0.004131, 0.999636, 2.499987, 0.999636 
-0.219373, -0.000825, 0.999572, 2.500005, 0.999572 
-0.217479, 0.002040, 0.999580, 2.500017, 0.999580 
-0.215588, 0.004464, 0.999657, 2.500025, 0.999657 
-0.213700, 0.006446, 0.999789, 2.500029, 0.999789 
-0.211814, 0.007986, 0.999954, 2.500030, 0.999954 
-0.209932, 0.009086, 1.000124, 2.500031, 1.000124 
-0.208052, 0.009736, 1.000270, 2.500031, 1.000270 
-0.206197, 0.007851, 1.000366, 2.500017, 1.000366 
-0.204361, 0.001648, 1.000394, 2.500004, 1.000394 
-0.202517, -0.003182, 1.000351, 2.499985, 1.000351 
-0.200663, -0.006647, 1.000245, 2.499968, 1.000245 
-0.198797, -0.007962, 1.000094, 2.499958, 1.000094 
-0.196929, -0.009466, 0.999924, 2.499957, 0.999924 
-0.195048, -0.008813, 0.999762, 2.499967, 0.999762 
-0.193158, -0.006781, 0.999636, 2.499985, 0.999636 
-0.191262, -0.003660, 0.999572, 2.500005, 0.999572 
-0.189365, -0.000353, 0.999580, 2.500018, 0.999580 
-0.187472, 0.002492, 0.999657, 2.500026, 0.999657 
-0.185582, 0.004876, 0.999789, 2.500030, 0.999789 
-0.183695, 0.006798, 0.999954, 2.500032, 0.999954 
-0.181810, 0.008260, 1.000124, 2.500032, 1.000124 
-0.179929, 0.009223, 1.000270, 2.500032, 1.000270 
-0.178072, 0.007680, 1.000366, 2.500016, 1.000366 
-0.176213, 0.006152, 1.000394, 2.500005, 1.000394 
-0.174373, 0.000395, 1.000351, 2.499990, 1.000351 
-0.172524, -0.003997, 1.000245, 2.499973, 1.000245 
-0.170663, -0.006349, 1.000094, 2.499960, 1.000094 
-0.168799, -0.008675, 0.999924, 2.499957, 0.999924 
-0.166923, -0.008955, 0.999762, 2.499964, 0.999762 
-0.165038, -0.007857, 0.999636, 2.499982, 0.999636 
-0.163146, -0.005671, 0.999572, 2.500002, 0.999572 
-0.161251, -0.002688, 0.999580, 2.500018, 0.999580 
-0.159357, 0.000468, 0.999657, 2.500027, 0.999657 
-0.157465, 0.003163, 0.999789, 2.500032, 0.999789 
-0.155576, 0.005396, 0.999954, 2.500033, 0.999954 
-0.153690, 0.007169, 1.000124, 2.500033, 1.000124 
-0.151808, 0.008394, 1.000270, 2.500032, 1.000270 
-0.149949, 0.007210, 1.000366, 2.500014, 1.000366 
-0.148089, 0.005991, 1.000394, 2.500003, 1.000394 
-0.146225, 0.004902, 1.000351, 2.499994, 1.000351 
-0.144381, -0.000419, 1.000245, 2.499978, 1.000245 
-0.142525, -0.003868, 1.000094, 2.499965, 1.000094 
-0.140665, -0.006960, 0.999924, 2.499959, 0.999924 
-0.138793, -0.008173, 0.999762, 2.499963, 0.999762 
-0.136913, -0.008009, 0.999636, 2.499979, 0.999636 
-0.135026, -0.006758, 0.999572, 2.499999, 0.999572 
-0.133136, -0.004711, 0.999580, 2.500016, 0.999580 
-0.131243, -0.001868, 0.999657, 2.500027, 0.999657 
-0.129349, 0.001138, 0.999789, 2.500032, 0.999789 
-0.127459, 0.003683, 0.999954, 2.500034, 0.999954 
-0.125572, 0.005768, 1.000124, 2.500033, 1.000124 
-0.123688, 0.007236, 1.000270, 2.500032, 1.000270 
-0.121828, 0.006432, 1.000366, 2.500012, 1.000366 
-0.119965, 0.005522, 1.000394, 2.499999, 1.000394 
-0.118101, 0.004743, 1.000351, 2.499991, 1.000351 
-0.116233, 0.004094, 1.000245, 2.499986, 1.000245 
-0.114383, -0.000511, 1.000094, 2.499971, 1.000094 
-0.112526, -0.004312, 0.999924, 2.499962, 0.999924 
-0.110659, -0.006459, 0.999762, 2.499963, 0.999762 
-0.108783, -0.007230, 0.999636, 2.499976, 0.999636 
-0.106901, -0.006916, 0.999572, 2.499995, 0.999572 
-0.105016, -0.005805, 0.999580, 2.500013, 0.999580 
-0.103127, -0.003899, 0.999657, 2.500026, 0.999657 
-0.101236, -0.001198, 0.999789, 2.500033, 0.999789 
-0.099344, 0.001660, 0.999954, 2.500035, 0.999954 
-0.097455, 0.004056, 1.000124, 2.500034, 1.000124 
-0.095570, 0.005749, 1.000270, 2.500032, 1.000270 
-0.093707, 0.005344, 1.000366, 2.500009, 1.000366 
-0.091844, 0.004743, 1.000394, 2.499995, 1.000394 
-0.089977, 0.004274, 1.000351, 2.499986, 1.000351 
-0.088108, 0.003936, 1.000245, 2.499982, 1.000245 
-0.086236, 0.003726, 1.000094, 2.499980, 1.000094 
-0.084383, -0.000726, 0.999924, 2.499968, 0.999924 
-0.082521, -0.003809, 0.999762, 2.499966, 0.999762 
-0.080649, -0.005517, 0.999636, 2.499975, 0.999636 
-0.078772, -0.006140, 0.999572, 2.499992, 0.999572 
-0.076891, -0.005967, 0.999580, 2.500009, 0.999580 
-0.075007, -0.004998, 0.999657, 2.500024, 0.999657 
-0.073120, -0.003234, 0.999789, 2.500034, 0.999789 
-0.071230, -0.000676, 0.999954, 2.500037, 0.999954 
-0.069339, 0.002033, 1.000124, 2.500036, 1.000124 
-0.067454, 0.003931, 1.000270, 2.500034, 1.000270 
-0.065589, 0.003945, 1.000366, 2.500007, 1.000366 
-0.063724, 0.003654, 1.000394, 2.499991, 1.000394 
-0.061856, 0.003496, 1.000351, 2.499982, 1.000351 
-0.059985, 0.003468, 1.000246, 2.499977, 1.000246 
-0.058111, 0.003570, 1.000096, 2.499976, 1.000096 
-0.056235, 0.003800, 0.999927, 2.499977, 0.999927 
-0.054377, -0.000219, 0.999768, 2.499971, 0.999768 
-0.052510, -0.002865, 0.999646, 2.499976, 0.999646 
-0.050638, -0.004428, 0.999586, 2.499990, 0.999586 
-0.048762, -0.005196, 0.999598, 2.500006, 0.999598 
-0.046883, -0.005170, 0.999679, 2.500021, 0.999679 
-0.045000, -0.004352, 0.999814, 2.500033, 0.999814 
-0.043115, -0.002742, 0.999979, 2.500039, 0.999979 
-0.041226, -0.000340, 1.000145, 2.500039, 1.000145 
-0.039339, 0.001705, 1.000283, 2.500036, 1.000283 
-0.037471, 0.002506, 1.000367, 2.500005, 1.000367 
-0.035605, 0.002375, 1.000379, 2.499985, 1.000379 
-0.033736, 0.002381, 1.000315, 2.499975, 1.000315 
-0.031865, 0.002521, 1.000184, 2.499970, 1.000184 
-0.029995, 0.002349, 1.000003, 2.499966, 1.000003 
-0.028113, 0.003303, 0.999796, 2.499971, 0.999796 
-0.026249, 0.000167, 0.999553, 2.499962, 0.999553 
-0.024376, -0.001409, 0.999058, 2.499967, 0.999058 
-0.022496, -0.001782, 0.997843, 2.499980, 0.997843 
-0.020622, -0.002738, 0.995223, 2.499990, 0.995223 
-0.018738, -0.001706, 0.990413, 2.500004, 0.990413 
-0.016852, -0.000118, 0.982427, 2.500014, 0.982427 
-0.014965, 0.001893, 0.970029, 2.500021, 0.970029 
-0.013083, 0.003023, 0.951767, 2.500024, 0.951767 
-0.011194, 0.005447, 0.926262, 2.500024, 0.926262 
-0.009320, 0.006534, 0.892903, 2.500008, 0.892903 
-0.007447, 0.006768, 0.851538, 2.500001, 0.851538 
-0.005577, 0.006693, 0.802838, 2.499992, 0.802838 
-0.003696, 0.007856, 0.747476, 2.499993, 0.747476 
-0.001811, 0.009254, 0.686970, 2.499997, 0.686970 
0.000057, 0.009269, 0.623949, 1.795003, 0.447996 
0.007633, 0.006508, 0.393493, 1.794989, 0.282528 
0.015211, 0.002202, 0.274802, 1.795001, 0.197308 
0.022798, -0.000268, 0.248135, 1.795015, 0.178161 
0.030375, -0.001875, 0.246951, 1.794995, 0.177311 
0.037977, -0.000604, 0.246928, 1.794997, 0.177295 
0.045576, 0.000374, 0.246903, 1.794998, 0.177276 
0.053174, 0.001235, 0.246906, 1.795003, 0.177279 
0.060773, 0.002089, 0.246936, 1.795005, 0.177300 
0.068369, 0.002583, 0.246979, 1.795006, 0.177331 
0.075951, 0.001281, 0.246987, 1.794993, 0.177337 
0.083537, 0.000357, 0.246934, 1.794991, 0.177299 
0.091130, -0.000021, 0.246861, 1.794995, 0.177246 
0.098728, 0.000139, 0.246813, 1.795000, 0.177211 
0.106327, 0.000312, 0.246795, 1.795001, 0.177199 
0.113925, 0.000484, 0.246793, 1.795001, 0.177197 
0.121511, -0.001824, 0.246799, 1.794999, 0.177201 
0.129104, -0.002705, 0.246815, 1.794999, 0.177213 
0.136702, -0.002446, 0.246843, 1.795002, 0.177233 
0.144303, -0.001389, 0.246872, 1.795003, 0.177254 
0.151902, -0.000475, 0.246892, 1.795003, 0.177268 
0.159500, 0.000380, 0.246900, 1.795001, 0.177274 
0.167098, 0.001234, 0.246909, 1.795003, 0.177280 
0.174697, 0.002079, 0.246936, 1.795005, 0.177300 
0.182293, 0.002579, 0.246979, 1.795006, 0.177331 
0.189875, 0.001282, 0.246987, 1.794993, 0.177337 
0.197461, 0.000362, 0.246934, 1.794991, 0.177299 
0.205054, -0.000018, 0.246861, 1.794995, 0.177246 
0.212653, 0.000142, 0.246813, 1.795000, 0.177211 
0.220251, 0.000314, 0.246795, 1.795001, 0.177199 
0.227849, 0.000485, 0.246793, 1.795001, 0.177197 
0.235435, -0.001823, 0.246799, 1.794999, 0.177201 
0.243028, -0.002704, 0.246815, 1.794999, 0.177213 
0.250626, -0.002445, 0.246843, 1.795002, 0.177233 
0.258227, -0.001389, 0.246872, 1.795003, 0.177254 
0.265826, -0.000476, 0.246892, 1.795003, 0.177268 
0.273424, 0.000378, 0.246900, 1.795001, 0.177274 
0.281022, 0.001227, 0.246909, 1.795003, 0.177280 
0.288621, 0.002071, 0.246936, 1.795005, 0.177300 
0.296217, 0.002578, 0.246979, 1.795006, 0.177331 
0.303799, 0.001286, 0.246987, 1.794993, 0.177337 
0.311386, 0.000366, 0.246934, 1.794991, 0.177299 
0.318978, -0.000014, 0.246861, 1.794995, 0.177246 
0.326577, 0.000145, 0.246813, 1.795000, 0.177211 
0.334175, 0.000316, 0.246795, 1.795001, 0.177199 
0.341773, 0.000486, 0.246793, 1.795001, 0.177197 
0.349359, -0.001822, 0.246799, 1.794999, 0.177201 
0.356952, -0.002703, 0.246815, 1.794999, 0.177213 
0.364550, -0.002445, 0.246843, 1.795002, 0.177233 
0.372151, -0.001389, 0.246872, 1.795003, 0.177254 
0.379750, -0.000477, 0.246892, 1.795003, 0.177268 
0.387348, 0.000375, 0.246900, 1.795001, 0.177274 
0.394946, 0.001221, 0.246909, 1.795003, 0.177280 
0.402545, 0.002066, 0.246936, 1.795005, 0.177300 
0.410141, 0.002577, 0.246979, 1.795006, 0.177331 
0.417723, 0.001288, 0.246987, 1.794993, 0.177337 
0.425310, 0.000370, 0.246934, 1.794991, 0.177299 
0.432902, -0.000011, 0.246861, 1.794995, 0.177246 
0.440501, 0.000147, 0.246813, 1.795000, 0.177211 
0.448099, 0.000317, 0.246795, 1.795001, 0.177199 
0.455697, 0.000486, 0.246793, 1.795001, 0.177197 
0.463283, -0.001821, 0.246799, 1.794999, 0.177201 
0.470876, -0.002702, 0.246815, 1.794999, 0.177213 
0.478474, -0.002444, 0.246843, 1.795002, 0.177233 
0.486075, -0.001389, 0.246872, 1.795003, 0.177254 
0.493674, -0.000477, 0.246892, 1.795003, 0.177268 
0.501272, 0.000371, 0.246900, 1.795001, 0.177274 
0.508870, 0.001217, 0.246909, 1.795003, 0.177280 
