position,velocity,density,energy,pressure
-0.600141, -0.015667, 0.541381, 2.499965, 0.541377 
-0.598344, -0.024320, 0.620713, 2.499877, 0.620697 
-0.596505, -0.028321, 0.695861, 2.499805, 0.695834 
-0.594636, -0.029036, 0.764129, 2.499771, 0.764094 
-0.592745, -0.027249, 0.823623, 2.499778, 0.823587 
-0.590835, -0.023400, 0.873243, 2.499822, 0.873212 
-0.588909, -0.017727, 0.912671, 2.499895, 0.912652 
-0.586968, -0.010365, 0.942369, 2.499983, 0.942366 
-0.585027, -0.002951, 0.963516, 2.500057, 0.963527 
-0.583097, 0.003139, 0.977955, 2.500104, 0.977975 
-0.581177, 0.008071, 0.987453, 2.500132, 0.987479 
-0.579267, 0.011955, 0.993448, 2.500148, 0.993478 
-0.577366, 0.014873, 0.997079, 2.500156, 0.997110 
-0.575473, 0.016810, 0.999205, 2.500159, 0.999237 
-0.573587, 0.018019, 1.000431, 2.500160, 1.000464 
-0.571808, 0.007265, 1.001111, 2.500133, 1.001138 
-0.570015, -0.001902, 1.001435, 2.500063, 1.001448 
-0.568202, -0.008860, 1.001422, 2.499981, 1.001420 
-0.566368, -0.013483, 1.001110, 2.499911, 1.001094 
-0.564505, -0.014881, 1.000574, 2.499883, 1.000550 
-0.562624, -0.013877, 0.999922, 2.499879, 0.999898 
-0.560727, -0.011400, 0.999275, 2.499909, 0.999257 
-0.558809, -0.006643, 0.998759, 2.499964, 0.998751 
-0.556885, -0.001194, 0.998479, 2.500016, 0.998482 
-0.554968, 0.003535, 0.998489, 2.500051, 0.998499 
-0.553057, 0.007535, 0.998779, 2.500072, 0.998793 
-0.551152, 0.010800, 0.999290, 2.500084, 0.999306 
-0.549254, 0.013329, 0.999931, 2.500089, 0.999949 
-0.547363, 0.015107, 1.000594, 2.500091, 1.000612 
-0.545478, 0.016228, 1.001163, 2.500092, 1.001181 
-0.543700, 0.005361, 1.001523, 2.500064, 1.001536 
-0.541900, -0.002977, 1.001625, 2.500004, 1.001626 
-0.540080, -0.009100, 1.001451, 2.499937, 1.001439 
-0.538240, -0.013013, 1.001033, 2.499885, 1.001010 
-0.536372, -0.013874, 1.000437, 2.499872, 1.000409 
-0.534497, -0.013357, 0.999762, 2.499867, 0.999735 
-0.532603, -0.011542, 0.999115, 2.499904, 0.999095 
-0.530684, -0.006682, 0.998614, 2.499963, 0.998607 
-0.528760, -0.001198, 0.998360, 2.500017, 0.998364 
-0.526842, 0.003544, 0.998398, 2.500052, 0.998409 
-0.524931, 0.007545, 0.998713, 2.500073, 0.998728 
-0.523026, 0.010808, 0.999245, 2.500085, 0.999262 
-0.521129, 0.013308, 0.999901, 2.500090, 0.999920 
-0.519237, 0.015096, 1.000575, 2.500092, 1.000594 
-0.517353, 0.016148, 1.001151, 2.500093, 1.001170 
-0.515574, 0.005332, 1.001516, 2.500065, 1.001529 
-0.513774, -0.003015, 1.001620, 2.500004, 1.001621 
-0.511955, -0.009137, 1.001447, 2.499938, 1.001435 
-0.510115, -0.013041, 1.001030, 2.499885, 1.001007 
-0.508247, -0.013883, 1.000434, 2.499872, 1.000406 
-0.506372, -0.013350, 0.999759, 2.499867, 0.999733 
-0.504477, -0.011524, 0.999113, 2.499904, 0.999093 
-0.502559, -0.006657, 0.998613, 2.499963, 0.998605 
-0.500634, -0.001180, 0.998359, 2.500017, 0.998363 
-0.498716, 0.003557, 0.998398, 2.500052, 0.998408 
-0.496805, 0.007554, 0.998713, 2.500073, 0.998728 
-0.494901, 0.010780, 0.999245, 2.500085, 0.999262 
-0.493003, 0.013294, 0.999902, 2.500090, 0.999920 
-0.491112, 0.015092, 1.000576, 2.500092, 1.000594 
-0.489227, 0.016151, 1.001151, 2.500093, 1.001170 
-0.487449, 0.005316, 1.001516, 2.500065, 1.001529 
-0.485649, -0.003040, 1.001620, 2.500004, 1.001621 
-0.483829, -0.009161, 1.001447, 2.499938, 1.001435 
-0.481989, -0.013052, 1.001029, 2.499885, 1.001007 
-0.480121, -0.013880, 1.000434, 2.499872, 1.000406 
-0.478246, -0.013340, 0.999759, 2.499867, 0.999732 
-0.476351, -0.011511, 0.999113, 2.499904, 0.999093 
-0.474433, -0.006645, 0.998613, 2.499963, 0.998605 
-0.472509, -0.001172, 0.998359, 2.500017, 0.998363 
-0.470591, 0.003562, 0.998398, 2.500052, 0.998408 
-0.468680, 0.007515, 0.998713, 2.500073, 0.998728 
-0.466776, 0.010759, 0.999245, 2.500085, 0.999262 
-0.464878, 0.013287, 0.999902, 2.500090, 0.999920 
-0.462986, 0.015095, 1.000576, 2.500093, 1.000594 
-0.461102, 0.016161, 1.001151, 2.500093, 1.001170 
-0.459323, 0.005309, 1.001516, 2.500065, 1.001529 
-0.457524, -0.003055, 1.001620, 2.500004, 1.001621 
-0.455704, -0.009167, 1.001447, 2.499937, 1.001435 
-0.453864, -0.013045, 1.001030, 2.499884, 1.001007 
-0.451996, -0.013869, 1.000434, 2.499872, 1.000406 
-0.450120, -0.013329, 0.999759, 2.499867, 0.999733 
-0.448226, -0.011503, 0.999113, 2.499904, 0.999093 
-0.446307, -0.006644, 0.998613, 2.499963, 0.998605 
-0.444383, -0.001173, 0.998359, 2.500017, 0.998363 
-0.442466, 0.003510, 0.998398, 2.500052, 0.998408 
-0.440555, 0.007485, 0.998713, 2.500073, 0.998727 
-0.438650, 0.010745, 0.999244, 2.500085, 0.999261 
-0.436752, 0.013287, 0.999901, 2.500091, 0.999919 
-0.434861, 0.015106, 1.000575, 2.500093, 1.000594 
-0.432976, 0.016176, 1.001151, 2.500093, 1.001170 
-0.431198, 0.005310, 1.001516, 2.500065, 1.001529 
-0.429398, -0.003049, 1.001620, 2.500004, 1.001621 
-0.427578, -0.009150, 1.001448, 2.499937, 1.001436 
-0.425738, -0.013025, 1.001030, 2.499884, 1.001007 
-0.423870, -0.013851, 1.000434, 2.499872, 1.000406 
-0.421995, -0.013318, 0.999760, 2.499867, 0.999733 
-0.420100, -0.011502, 0.999113, 2.499904, 0.999094 
-0.418182, -0.006654, 0.998613, 2.499963, 0.998606 
-0.416258, -0.001242, 0.998359, 2.500017, 0.998363 
-0.414340, 0.003465, 0.998397, 2.500052, 0.998408 
-0.412429, 0.007459, 0.998712, 2.500073, 0.998727 
-0.410525, 0.010737, 0.999243, 2.500085, 0.999260 
-0.408627, 0.013293, 0.999900, 2.500091, 0.999918 
-0.406735, 0.015120, 1.000574, 2.500093, 1.000593 
-0.404850, 0.016196, 1.001150, 2.500093, 1.001169 
-0.403072, 0.005332, 1.001515, 2.500066, 1.001529 
-0.401272, -0.003017, 1.001620, 2.500004, 1.001622 
-0.399452, -0.009116, 1.001448, 2.499937, 1.001436 
-0.397612, -0.012995, 1.001031, 2.499884, 1.001008 
-0.395744, -0.013830, 1.000435, 2.499872, 1.000408 
-0.393869, -0.013308, 0.999761, 2.499866, 0.999734 
-0.391975, -0.011508, 0.999114, 2.499903, 0.999095 
-0.390057, -0.006746, 0.998614, 2.499962, 0.998606 
-0.388133, -0.001306, 0.998359, 2.500016, 0.998363 
-0.386215, 0.003424, 0.998397, 2.500052, 0.998407 
-0.384304, 0.007438, 0.998711, 2.500074, 0.998726 
-0.382399, 0.010734, 0.999242, 2.500085, 0.999259 
-0.380501, 0.013301, 0.999899, 2.500091, 0.999917 
-0.378609, 0.015137, 1.000573, 2.500093, 1.000592 
-0.376725, 0.016219, 1.001150, 2.500093, 1.001168 
-0.374946, 0.005371, 1.001515, 2.500066, 1.001529 
-0.373146, -0.002973, 1.001620, 2.500004, 1.001622 
-0.371326, -0.009074, 1.001449, 2.499938, 1.001437 
-0.369487, -0.012959, 1.001032, 2.499884, 1.001009 
-0.367619, -0.013804, 1.000437, 2.499872, 1.000409 
-0.365744, -0.013297, 0.999762, 2.499866, 0.999736 
-0.363850, -0.011557, 0.999115, 2.499903, 0.999096 
-0.361932, -0.006822, 0.998614, 2.499962, 0.998607 
-0.360008, -0.001359, 0.998359, 2.500016, 0.998363 
-0.358090, 0.003392, 0.998396, 2.500052, 0.998407 
-0.356178, 0.007427, 0.998710, 2.500074, 0.998725 
-0.354274, 0.010734, 0.999241, 2.500086, 0.999258 
-0.352375, 0.013311, 0.999898, 2.500091, 0.999916 
-0.350484, 0.015154, 1.000572, 2.500093, 1.000591 
-0.348599, 0.016238, 1.001149, 2.500094, 1.001167 
-0.346821, 0.005405, 1.001514, 2.500066, 1.001528 
-0.345021, -0.002934, 1.001620, 2.500004, 1.001622 
-0.343201, -0.009035, 1.001449, 2.499938, 1.001437 
-0.341361, -0.012925, 1.001033, 2.499884, 1.001010 
-0.339493, -0.013780, 1.000438, 2.499872, 1.000410 
-0.337618, -0.013302, 0.999763, 2.499866, 0.999736 
-0.335724, -0.011593, 0.999116, 2.499903, 0.999097 
-0.333807, -0.006880, 0.998615, 2.499961, 0.998607 
-0.331882, -0.001396, 0.998359, 2.500016, 0.998363 
-0.329964, 0.003376, 0.998396, 2.500052, 0.998406 
-0.328053, 0.007422, 0.998710, 2.500074, 0.998724 
-0.326148, 0.010740, 0.999240, 2.500086, 0.999257 
-0.324250, 0.013325, 0.999897, 2.500091, 0.999915 
-0.322358, 0.015170, 1.000571, 2.500093, 1.000590 
-0.320473, 0.016253, 1.001148, 2.500094, 1.001167 
-0.318695, 0.005432, 1.001514, 2.500066, 1.001528 
-0.316895, -0.002902, 1.001620, 2.500004, 1.001622 
-0.315075, -0.009003, 1.001450, 2.499938, 1.001438 
-0.313235, -0.012898, 1.001033, 2.499885, 1.001011 
-0.311367, -0.013752, 1.000438, 2.499872, 1.000410 
-0.309493, -0.013308, 0.999764, 2.499866, 0.999737 
-0.307599, -0.011623, 0.999117, 2.499902, 0.999097 
-0.305681, -0.006924, 0.998615, 2.499961, 0.998608 
-0.303757, -0.001418, 0.998359, 2.500016, 0.998363 
-0.301839, 0.003365, 0.998396, 2.500052, 0.998406 
-0.299927, 0.007423, 0.998709, 2.500074, 0.998724 
-0.298022, 0.010749, 0.999239, 2.500086, 0.999256 
-0.296124, 0.013335, 0.999896, 2.500091, 0.999914 
-0.294233, 0.015178, 1.000570, 2.500093, 1.000589 
-0.292348, 0.016261, 1.001148, 2.500094, 1.001166 
-0.290569, 0.005451, 1.001514, 2.500066, 1.001528 
-0.288769, -0.002879, 1.001620, 2.500005, 1.001622 
-0.286949, -0.008980, 1.001450, 2.499938, 1.001438 
-0.285109, -0.012843, 1.001034, 2.499885, 1.001011 
-0.283242, -0.013735, 1.000439, 2.499872, 1.000411 
-0.281367, -0.013318, 0.999765, 2.499866, 0.999738 
-0.279473, -0.011649, 0.999117, 2.499902, 0.999098 
-0.277556, -0.006951, 0.998616, 2.499961, 0.998608 
-0.275631, -0.001435, 0.998360, 2.500016, 0.998363 
-0.273713, 0.003361, 0.998396, 2.500052, 0.998406 
-0.271802, 0.007427, 0.998709, 2.500074, 0.998723 
-0.269897, 0.010754, 0.999239, 2.500086, 0.999256 
-0.267999, 0.013337, 0.999895, 2.500091, 0.999913 
-0.266107, 0.015178, 1.000570, 2.500093, 1.000589 
-0.264222, 0.016261, 1.001147, 2.500094, 1.001166 
-0.262444, 0.005461, 1.001514, 2.500066, 1.001527 
-0.260644, -0.002865, 1.001620, 2.500005, 1.001622 
-0.258823, -0.008903, 1.001450, 2.499938, 1.001438 
-0.256984, -0.012807, 1.001034, 2.499885, 1.001012 
-0.255116, -0.013733, 1.000440, 2.499872, 1.000412 
-0.253242, -0.013332, 0.999765, 2.499866, 0.999738 
-0.251348, -0.011669, 0.999118, 2.499902, 0.999098 
-0.249431, -0.006973, 0.998616, 2.499961, 0.998608 
-0.247506, -0.001443, 0.998360, 2.500016, 0.998363 
-0.245588, 0.003362, 0.998395, 2.500052, 0.998406 
-0.243676, 0.007429, 0.998708, 2.500074, 0.998723 
-0.241771, 0.010752, 0.999238, 2.500086, 0.999255 
-0.239873, 0.013332, 0.999895, 2.500091, 0.999913 
-0.237982, 0.015171, 1.000569, 2.500093, 1.000588 
-0.236097, 0.016252, 1.001147, 2.500094, 1.001165 
-0.234318, 0.005461, 1.001512, 2.500064, 1.001526 
-0.232517, -0.002769, 1.001613, 2.500001, 1.001615 
-0.230697, -0.008853, 1.001433, 2.499933, 1.001421 
-0.228858, -0.012794, 1.000999, 2.499879, 1.000976 
-0.226991, -0.013741, 1.000380, 2.499866, 1.000352 
-0.225116, -0.013349, 0.999673, 2.499859, 0.999647 
-0.223223, -0.011687, 0.998988, 2.499897, 0.998968 
-0.221305, -0.006983, 0.998443, 2.499958, 0.998435 
-0.219380, -0.001442, 0.998147, 2.500015, 0.998150 
-0.217462, 0.003364, 0.998158, 2.500052, 0.998168 
-0.215551, 0.007425, 0.998470, 2.500074, 0.998485 
-0.213646, 0.010743, 0.999029, 2.500086, 0.999046 
-0.211748, 0.013319, 0.999746, 2.500091, 0.999764 
-0.209856, 0.015156, 1.000511, 2.500093, 1.000530 
-0.207971, 0.016236, 1.001207, 2.500094, 1.001226 
-0.206125, 0.014516, 1.001713, 2.500072, 1.001723 
-0.204342, 0.003868, 1.001951, 2.500038, 1.001954 
-0.202539, -0.004520, 1.001890, 2.499976, 1.001881 
-0.200713, -0.009985, 1.001541, 2.499912, 1.001522 
-0.198865, -0.013727, 1.000957, 2.499878, 1.000932 
-0.197005, -0.015247, 1.000230, 2.499850, 1.000205 
-0.195124, -0.015333, 0.999465, 2.499868, 0.999445 
-0.193219, -0.012265, 0.998784, 2.499917, 0.998775 
-0.191297, -0.007147, 0.998303, 2.499980, 0.998306 
-0.189373, -0.001456, 0.998106, 2.500032, 0.998117 
-0.187455, 0.003454, 0.998222, 2.500065, 0.998238 
-0.185544, 0.007580, 0.998623, 2.500084, 0.998641 
-0.183640, 0.010924, 0.999237, 2.500093, 0.999257 
-0.181743, 0.013488, 0.999966, 2.500097, 0.999985 
-0.179853, 0.015196, 1.000692, 2.500097, 1.000712 
-0.178002, 0.014162, 1.001294, 2.500074, 1.001304 
-0.176149, 0.012789, 1.001684, 2.500057, 1.001687 
-0.174360, 0.002583, 1.001801, 2.500018, 1.001795 
-0.172551, -0.005371, 1.001633, 2.499959, 1.001617 
-0.170718, -0.011052, 1.001208, 2.499912, 1.001184 
-0.168868, -0.013690, 1.000595, 2.499868, 1.000569 
-0.167001, -0.015572, 0.999887, 2.499864, 0.999866 
-0.165109, -0.014360, 0.999198, 2.499893, 0.999188 
-0.163202, -0.011107, 0.998642, 2.499944, 0.998644 
-0.161282, -0.006097, 0.998310, 2.500000, 0.998320 
-0.159359, -0.000572, 0.998255, 2.500046, 0.998271 
-0.157444, 0.004171, 0.998483, 2.500073, 0.998502 
-0.155535, 0.008132, 0.998951, 2.500088, 0.998971 
-0.153634, 0.011313, 0.999577, 2.500094, 0.999597 
-0.151740, 0.013541, 1.000259, 2.500095, 1.000279 
-0.149883, 0.013220, 1.000879, 2.500071, 1.000888 
-0.148026, 0.012454, 1.001349, 2.500053, 1.001351 
-0.146168, 0.011522, 1.001601, 2.500041, 1.001597 
-0.144372, 0.001731, 1.001596, 2.500002, 1.001583 
-0.142551, -0.005291, 1.001339, 2.499953, 1.001317 
-0.140717, -0.010384, 1.000872, 2.499901, 1.000847 
-0.138864, -0.014007, 1.000270, 2.499878, 1.000248 
-0.136986, -0.014652, 0.999632, 2.499886, 0.999619 
-0.135092, -0.013262, 0.999062, 2.499919, 0.999062 
-0.133187, -0.010117, 0.998651, 2.499965, 0.998660 
-0.131269, -0.005220, 0.998458, 2.500015, 0.998474 
-0.129349, 0.000143, 0.998515, 2.500054, 0.998534 
-0.127435, 0.004725, 0.998811, 2.500077, 0.998831 
-0.125529, 0.008527, 0.999291, 2.500088, 0.999311 
-0.123632, 0.011240, 0.999871, 2.500091, 0.999890 
-0.121769, 0.011673, 1.000446, 2.500066, 1.000453 
-0.119908, 0.011515, 1.000934, 2.500048, 1.000933 
-0.118045, 0.011193, 1.001264, 2.500036, 1.001259 
-0.116179, 0.010701, 1.001392, 2.500028, 1.001384 
-0.114375, 0.001607, 1.001300, 2.499993, 1.001282 
-0.112553, -0.005281, 1.001001, 2.499944, 1.000979 
-0.110712, -0.010596, 1.000547, 2.499908, 1.000525 
-0.108849, -0.013103, 1.000015, 2.499898, 1.000001 
-0.106969, -0.013581, 0.999496, 2.499911, 0.999493 
-0.105077, -0.012305, 0.999071, 2.499940, 0.999078 
-0.103174, -0.009278, 0.998799, 2.499981, 0.998815 
-0.101258, -0.004503, 0.998719, 2.500025, 0.998739 
-0.099340, 0.000702, 0.998843, 2.500059, 0.998864 
-0.097429, 0.005125, 0.999151, 2.500078, 0.999172 
-0.095529, 0.008287, 0.999585, 2.500085, 0.999604 
-0.093660, 0.009514, 1.000059, 2.500059, 1.000064 
-0.091794, 0.009968, 1.000500, 2.500041, 1.000497 
-0.089926, 0.010259, 1.000847, 2.500029, 1.000839 
-0.088056, 0.010380, 1.001054, 2.500022, 1.001043 
-0.086184, 0.010327, 1.001093, 2.500019, 1.001081 
-0.084375, 0.001638, 1.000960, 2.499987, 1.000940 
-0.082547, -0.005318, 1.000675, 2.499949, 1.000654 
-0.080698, -0.009694, 1.000291, 2.499926, 1.000276 
-0.078832, -0.012045, 0.999877, 2.499921, 0.999873 
-0.076954, -0.012645, 0.999501, 2.499932, 0.999507 
-0.075065, -0.011492, 0.999215, 2.499957, 0.999229 
-0.073163, -0.008589, 0.999054, 2.499993, 0.999074 
-0.071250, -0.003944, 0.999040, 2.500032, 0.999063 
-0.069334, 0.001103, 0.999176, 2.500061, 0.999198 
-0.067430, 0.004677, 0.999437, 2.500074, 0.999457 
-0.065555, 0.006739, 0.999766, 2.500050, 0.999770 
-0.063685, 0.007806, 1.000106, 2.500032, 1.000101 
-0.061812, 0.008712, 1.000408, 2.500021, 1.000397 
-0.059938, 0.009450, 1.000633, 2.500015, 1.000619 
-0.058061, 0.010015, 1.000753, 2.500014, 1.000739 
-0.056183, 0.010401, 1.000757, 2.500015, 1.000743 
-0.054368, 0.001852, 1.000647, 2.499991, 1.000629 
-0.052533, -0.004402, 1.000445, 2.499967, 1.000431 
-0.050681, -0.008637, 1.000196, 2.499951, 1.000190 
-0.048817, -0.011127, 0.999946, 2.499946, 0.999949 
-0.046942, -0.011865, 0.999731, 2.499952, 0.999744 
-0.045055, -0.010858, 0.999579, 2.499970, 0.999598 
-0.043155, -0.008112, 0.999502, 2.499997, 0.999526 
-0.041244, -0.003629, 0.999505, 2.500030, 0.999529 
-0.039336, 0.000741, 0.999577, 2.500049, 0.999599 
-0.037451, 0.003894, 0.999685, 2.500031, 0.999688 
-0.035578, 0.005319, 0.999789, 2.500014, 0.999780 
-0.033703, 0.006614, 0.999854, 2.500005, 0.999839 
-0.031826, 0.007773, 0.999853, 2.500002, 0.999835 
-0.029954, 0.008343, 0.999772, 2.499997, 0.999752 
-0.028064, 0.009758, 0.999606, 2.500007, 0.999589 
-0.026215, 0.006777, 0.999328, 2.499980, 0.999305 
-0.024371, 0.000977, 0.998719, 2.499962, 0.998699 
-0.022508, -0.002243, 0.997330, 2.499956, 0.997318 
-0.020651, -0.005789, 0.994514, 2.499935, 0.994508 
-0.018766, -0.005496, 0.989489, 2.499949, 0.989492 
-0.016870, -0.003694, 0.981298, 2.499970, 0.981306 
-0.014968, -0.000689, 0.968713, 2.499996, 0.968725 
-0.013079, 0.000685, 0.950347, 2.500010, 0.950361 
-0.011167, 0.005405, 0.924697, 2.500037, 0.924710 
-0.009276, 0.008741, 0.891322, 2.500035, 0.891326 
-0.007393, 0.010797, 0.850077, 2.500031, 0.850078 
-0.005518, 0.011720, 0.801597, 2.500026, 0.801593 
-0.003624, 0.014286, 0.746315, 2.500035, 0.746311 
-0.001727, 0.016839, 0.685849, 2.500048, 0.685848 
0.000138, 0.016347, 0.623098, 1.795045, 0.447385 
0.007707, 0.014855, 0.393885, 1.795018, 0.282807 
0.015236, 0.004918, 0.275467, 1.794994, 0.197786 
0.022784, -0.002814, 0.248466, 1.795006, 0.178401 
0.030347, -0.005497, 0.247023, 1.794981, 0.177362 
0.037961, -0.003205, 0.246840, 1.794988, 0.177230 
0.045570, -0.001139, 0.246760, 1.794995, 0.177174 
0.053178, 0.000769, 0.246782, 1.795008, 0.177190 
0.060786, 0.002658, 0.246878, 1.795016, 0.177259 
0.068390, 0.004179, 0.247020, 1.795019, 0.177361 
0.075968, 0.003490, 0.247093, 1.794996, 0.177412 
0.083551, 0.002646, 0.247027, 1.794988, 0.177364 
0.091140, 0.002036, 0.246896, 1.794991, 0.177271 
0.098738, 0.001875, 0.246816, 1.794999, 0.177214 
0.106335, 0.001722, 0.246837, 1.795002, 0.177229 
0.113933, 0.001561, 0.246918, 1.795002, 0.177288 
0.121506, -0.001084, 0.246945, 1.794997, 0.177307 
0.129080, -0.004804, 0.246873, 1.794996, 0.177255 
0.136672, -0.005941, 0.246782, 1.794995, 0.177190 
0.144278, -0.004956, 0.246743, 1.794997, 0.177162 
0.151886, -0.003025, 0.246748, 1.794998, 0.177165 
0.159494, -0.001126, 0.246761, 1.794999, 0.177175 
0.167102, 0.000766, 0.246789, 1.795006, 0.177195 
0.174710, 0.002642, 0.246879, 1.795016, 0.177260 
0.182314, 0.004133, 0.247020, 1.795019, 0.177361 
0.189892, 0.003476, 0.247093, 1.794996, 0.177412 
0.197475, 0.002654, 0.247026, 1.794988, 0.177364 
0.205065, 0.002058, 0.246896, 1.794991, 0.177271 
0.212662, 0.001894, 0.246816, 1.794999, 0.177214 
0.220260, 0.001734, 0.246838, 1.795002, 0.177230 
0.227857, 0.001570, 0.246918, 1.795002, 0.177288 
0.235430, -0.001077, 0.246945, 1.794997, 0.177307 
0.243004, -0.004797, 0.246874, 1.794996, 0.177255 
0.250597, -0.005935, 0.246782, 1.794995, 0.177190 
0.258202, -0.004954, 0.246743, 1.794997, 0.177162 
0.265811, -0.003026, 0.246748, 1.794998, 0.177165 
0.273418, -0.001132, 0.246761, 1.794999, 0.177175 
0.281026, 0.000751, 0.246789, 1.795006, 0.177195 
0.288634, 0.002604, 0.246879, 1.795015, 0.177260 
0.296238, 0.004102, 0.247019, 1.795019, 0.177360 
0.303816, 0.003474, 0.247092, 1.794996, 0.177411 
0.311399, 0.002671, 0.247026, 1.794988, 0.177364 
0.318989, 0.002080, 0.246896, 1.794991, 0.177271 
0.326586, 0.001908, 0.246816, 1.794999, 0.177214 
0.334184, 0.001747, 0.246838, 1.795002, 0.177230 
0.341781, 0.001578, 0.246919, 1.795002, 0.177288 
0.349354, -0.001072, 0.246945, 1.794997, 0.177307 
0.356928, -0.004791, 0.246874, 1.794996, 0.177255 
0.364521, -0.005931, 0.246782, 1.794995, 0.177190 
0.372126, -0.004951, 0.246744, 1.794997, 0.177162 
0.379735, -0.003028, 0.246748, 1.794998, 0.177166 
0.387342, -0.001139, 0.246762, 1.794999, 0.177175 
0.394950, 0.000731, 0.246789, 1.795006, 0.177195 
0.402558, 0.002577, 0.246878, 1.795015, 0.177259 
0.410162, 0.004082, 0.247019, 1.795019, 0.177360 
0.417740, 0.003477, 0.247092, 1.794996, 0.177411 
0.425323, 0.002689, 0.247026, 1.794988, 0.177364 
0.432913, 0.002095, 0.246897, 1.794991, 0.177271 
0.440510, 0.001922, 0.246817, 1.794999, 0.177214 
0.448108, 0.001756, 0.246838, 1.795002, 0.177230 
0.455705, 0.001583, 0.246919, 1.795002, 0.177288 
0.463278, -0.001070, 0.246945, 1.794997, 0.177307 
0.470852, -0.004787, 0.246874, 1.794996, 0.177255 
0.478445, -0.005926, 0.246782, 1.794995, 0.177190 
0.486050, -0.004949, 0.246744, 1.794997, 0.177162 
0.493659, -0.003028, 0.246748, 1.794998, 0.177166 
0.501266, -0.001143, 0.246762, 1.794999, 0.177175 
0.508874, 0.000712, 0.246789, 1.795006, 0.177195 
