position,velocity,density,energy,pressure
-0.601476, -0.052719, 0.541444, 2.499603, 0.541364 
-0.600489, -0.087141, 0.583911, 2.498387, 0.583568 
-0.599065, -0.106088, 0.635295, 2.497208, 0.634659 
-0.597306, -0.112215, 0.688609, 2.496521, 0.687757 
-0.595278, -0.107440, 0.738618, 2.496494, 0.737704 
-0.593017, -0.092863, 0.782133, 2.497147, 0.781349 
-0.590543, -0.068921, 0.818262, 2.498362, 0.817789 
-0.587876, -0.036858, 0.848648, 2.499836, 0.848595 
-0.585237, -0.007025, 0.876177, 2.500943, 0.876468 
-0.582746, 0.016545, 0.904171, 2.501597, 0.904683 
-0.580384, 0.034792, 0.933049, 2.501963, 0.933702 
-0.578136, 0.048414, 0.961262, 2.502151, 0.962002 
-0.575990, 0.057901, 0.986768, 2.502239, 0.987560 
-0.573943, 0.063721, 1.007571, 2.502274, 1.008392 
-0.571973, 0.066527, 1.022199, 2.502299, 1.023041 
-0.571156, 0.027206, 1.027052, 2.501895, 1.027748 
-0.570199, -0.007591, 1.029989, 2.500900, 1.030319 
-0.569035, -0.035088, 1.030197, 2.499677, 1.030077 
-0.567635, -0.053058, 1.026633, 2.498588, 1.026116 
-0.565838, -0.055992, 1.017990, 2.498229, 1.017346 
-0.563894, -0.053122, 1.005541, 2.498280, 1.004920 
-0.561727, -0.040345, 0.990986, 2.498828, 0.990563 
-0.559332, -0.019347, 0.977655, 2.499677, 0.977533 
-0.556914, 0.001149, 0.970547, 2.500356, 0.970666 
-0.554576, 0.018355, 0.971858, 2.500778, 0.972127 
-0.552318, 0.032310, 0.980391, 2.501020, 0.980751 
-0.550138, 0.043103, 0.993340, 2.501147, 0.993751 
-0.548035, 0.050889, 1.007557, 2.501208, 1.007997 
-0.546015, 0.055398, 1.020129, 2.501245, 1.020587 
-0.544050, 0.058083, 1.028855, 2.501264, 1.029325 
-0.543268, 0.016572, 1.031283, 2.500875, 1.031608 
-0.542234, -0.015710, 1.032102, 2.499992, 1.032101 
-0.540981, -0.039660, 1.030168, 2.499000, 1.029805 
-0.539496, -0.054460, 1.024567, 2.498214, 1.023919 
-0.537640, -0.054221, 1.014259, 2.498135, 1.013584 
-0.535763, -0.052989, 1.001549, 2.498205, 1.000902 
-0.533592, -0.038934, 0.987040, 2.498835, 0.986615 
-0.531186, -0.017755, 0.974279, 2.499709, 0.974167 
-0.528771, 0.002397, 0.968186, 2.500377, 0.968311 
-0.526438, 0.019230, 0.970527, 2.500786, 0.970799 
-0.524184, 0.032825, 0.979825, 2.501019, 0.980185 
-0.522008, 0.043333, 0.993228, 2.501142, 0.993638 
-0.519924, 0.049982, 1.007585, 2.501211, 1.008026 
-0.517898, 0.054811, 1.020253, 2.501245, 1.020712 
-0.515935, 0.057573, 1.028919, 2.501258, 1.029387 
-0.515168, 0.014742, 1.031277, 2.500869, 1.031601 
-0.514142, -0.018044, 1.032029, 2.499952, 1.032017 
-0.512886, -0.041801, 1.030016, 2.498937, 1.029633 
-0.511390, -0.055747, 1.024308, 2.498165, 1.023644 
-0.509512, -0.053398, 1.013875, 2.498140, 1.013199 
-0.507605, -0.051165, 1.000994, 2.498289, 1.000373 
-0.505446, -0.037442, 0.986644, 2.498894, 0.986237 
-0.503043, -0.016603, 0.974058, 2.499741, 0.973956 
-0.500634, 0.003155, 0.968185, 2.500388, 0.968313 
-0.498305, 0.019677, 0.970712, 2.500787, 0.970984 
-0.496054, 0.033081, 0.980123, 2.501018, 0.980482 
-0.493902, 0.042078, 0.993449, 2.501149, 0.993861 
-0.491808, 0.049311, 1.007819, 2.501219, 1.008263 
-0.489776, 0.054565, 1.020451, 2.501249, 1.020912 
-0.487808, 0.057605, 1.029042, 2.501260, 1.029510 
-0.487058, 0.013564, 1.031331, 2.500864, 1.031653 
-0.486039, -0.019655, 1.032044, 2.499916, 1.032020 
-0.484781, -0.043185, 1.029994, 2.498885, 1.029594 
-0.483267, -0.055322, 1.024221, 2.498142, 1.023549 
-0.481381, -0.053006, 1.013717, 2.498149, 1.013043 
-0.479469, -0.050418, 1.000811, 2.498310, 1.000196 
-0.477309, -0.036668, 0.986486, 2.498913, 0.986085 
-0.474909, -0.016094, 0.973973, 2.499749, 0.973873 
-0.472503, 0.003431, 0.968173, 2.500391, 0.968302 
-0.470176, 0.019849, 0.970746, 2.500792, 0.971021 
-0.467956, 0.031306, 0.980056, 2.501028, 0.980418 
-0.465792, 0.041079, 0.993398, 2.501168, 0.993816 
-0.463688, 0.048928, 1.007790, 2.501239, 1.008240 
-0.461648, 0.054669, 1.020437, 2.501266, 1.020903 
-0.459676, 0.058064, 1.029030, 2.501272, 1.029502 
-0.458941, 0.012940, 1.031298, 2.500866, 1.031620 
-0.457927, -0.020640, 1.032027, 2.499885, 1.031994 
-0.456659, -0.043482, 1.029997, 2.498855, 1.029587 
-0.455136, -0.054942, 1.024223, 2.498134, 1.023547 
-0.453252, -0.053264, 1.013733, 2.498148, 1.013058 
-0.451337, -0.049970, 1.000855, 2.498305, 1.000238 
-0.449180, -0.036494, 0.986555, 2.498900, 0.986151 
-0.446784, -0.016128, 0.974029, 2.499737, 0.973925 
-0.444379, 0.003361, 0.968165, 2.500389, 0.968294 
-0.442089, 0.017345, 0.970582, 2.500786, 0.970854 
-0.439853, 0.029765, 0.979797, 2.501046, 0.980165 
-0.437677, 0.040341, 0.993121, 2.501197, 0.993549 
-0.435564, 0.048873, 1.007554, 2.501270, 1.008014 
-0.433514, 0.055246, 1.020281, 2.501293, 1.020756 
-0.431538, 0.058885, 1.028958, 2.501296, 1.029438 
-0.430816, 0.012819, 1.031256, 2.500873, 1.031581 
-0.429797, -0.020352, 1.032060, 2.499875, 1.032024 
-0.428521, -0.042598, 1.030098, 2.498853, 1.029687 
-0.426996, -0.054006, 1.024395, 2.498133, 1.023718 
-0.425115, -0.052610, 1.013980, 2.498137, 1.013303 
-0.423207, -0.049823, 1.001153, 2.498275, 1.000527 
-0.421059, -0.036927, 0.986848, 2.498856, 0.986429 
-0.418666, -0.016663, 0.974189, 2.499708, 0.974076 
-0.416306, -0.000132, 0.968125, 2.500338, 0.968237 
-0.413998, 0.014999, 0.970239, 2.500784, 0.970510 
-0.411748, 0.028407, 0.979289, 2.501072, 0.979664 
-0.409559, 0.039865, 0.992586, 2.501236, 0.993025 
-0.407432, 0.049308, 1.007116, 2.501309, 1.007589 
-0.405376, 0.056093, 1.020000, 2.501331, 1.020487 
-0.403396, 0.060032, 1.028879, 2.501332, 1.029370 
-0.402672, 0.014140, 1.031283, 2.500893, 1.031615 
-0.401645, -0.018485, 1.032215, 2.499899, 1.032185 
-0.400368, -0.040777, 1.030384, 2.498878, 1.029982 
-0.398849, -0.052604, 1.024819, 2.498143, 1.024146 
-0.396977, -0.051862, 1.014531, 2.498122, 1.013849 
-0.395080, -0.049943, 1.001766, 2.498226, 1.001126 
-0.392946, -0.037943, 0.987413, 2.498788, 0.986974 
-0.390612, -0.021442, 0.974658, 2.499570, 0.974503 
-0.388231, -0.003590, 0.968073, 2.500282, 0.968168 
-0.385906, 0.012707, 0.969762, 2.500782, 0.970032 
-0.383640, 0.027196, 0.978564, 2.501104, 0.978949 
-0.381434, 0.039850, 0.991816, 2.501282, 0.992269 
-0.379298, 0.049867, 1.006435, 2.501360, 1.006923 
-0.377236, 0.057152, 1.019522, 2.501380, 1.020024 
-0.375251, 0.061409, 1.028662, 2.501378, 1.029168 
-0.374513, 0.016440, 1.031219, 2.500926, 1.031561 
-0.373483, -0.015963, 1.032304, 2.499939, 1.032287 
-0.372209, -0.038447, 1.030639, 2.498917, 1.030248 
-0.370700, -0.051569, 1.025244, 2.498164, 1.024578 
-0.368837, -0.051550, 1.015112, 2.498116, 1.014429 
-0.366949, -0.049721, 1.002427, 2.498185, 1.001775 
-0.364874, -0.041921, 0.988216, 2.498613, 0.987725 
-0.362548, -0.025629, 0.975170, 2.499432, 0.974973 
-0.360149, -0.006550, 0.968079, 2.500227, 0.968159 
-0.357807, 0.010912, 0.969352, 2.500784, 0.969622 
-0.355521, 0.026771, 0.977925, 2.501138, 0.978320 
-0.353306, 0.040050, 0.991105, 2.501330, 0.991571 
-0.351162, 0.050655, 1.005800, 2.501412, 1.006303 
-0.349093, 0.058369, 1.019066, 2.501431, 1.019583 
-0.347107, 0.062749, 1.028429, 2.501429, 1.028950 
-0.346358, 0.018586, 1.031121, 2.500962, 1.031474 
-0.345323, -0.013594, 1.032338, 2.499980, 1.032333 
-0.344050, -0.036169, 1.030812, 2.498957, 1.030433 
-0.342546, -0.049647, 1.025556, 2.498193, 1.024899 
-0.340697, -0.049431, 1.015601, 2.498099, 1.014916 
-0.338830, -0.049727, 1.003011, 2.498104, 1.002335 
-0.336778, -0.043937, 0.988805, 2.498496, 0.988278 
-0.334467, -0.028634, 0.975565, 2.499318, 0.975334 
-0.332056, -0.008803, 0.968076, 2.500180, 0.968142 
-0.329693, 0.010135, 0.969027, 2.500789, 0.969298 
-0.327398, 0.026604, 0.977411, 2.501165, 0.977813 
-0.325174, 0.040491, 0.990538, 2.501366, 0.991015 
-0.323024, 0.051558, 1.005294, 2.501449, 1.005807 
-0.320954, 0.059333, 1.018682, 2.501470, 1.019210 
-0.318968, 0.063696, 1.028214, 2.501468, 1.028747 
-0.318209, 0.020245, 1.031015, 2.500991, 1.031377 
-0.317171, -0.011713, 1.032337, 2.500015, 1.032344 
-0.315898, -0.034328, 1.030922, 2.498994, 1.030555 
-0.314399, -0.048139, 1.025782, 2.498219, 1.025134 
-0.312564, -0.048959, 1.015970, 2.498098, 1.015283 
-0.310698, -0.049787, 1.003404, 2.498084, 1.002719 
-0.308672, -0.045148, 0.989294, 2.498416, 0.988742 
-0.306372, -0.030600, 0.975929, 2.499235, 0.975672 
-0.303948, -0.010056, 0.968151, 2.500147, 0.968208 
-0.301576, 0.009500, 0.968861, 2.500785, 0.969132 
-0.299272, 0.026619, 0.977093, 2.501175, 0.977498 
-0.297041, 0.041021, 0.990168, 2.501379, 0.990649 
-0.294891, 0.052101, 1.004929, 2.501463, 1.005447 
-0.292822, 0.059759, 1.018380, 2.501485, 1.018913 
-0.290836, 0.064092, 1.028028, 2.501484, 1.028566 
-0.290068, 0.021283, 1.030914, 2.501004, 1.031280 
-0.289026, -0.010426, 1.032316, 2.500037, 1.032331 
-0.287755, -0.033118, 1.030990, 2.499020, 1.030632 
-0.286229, -0.045145, 1.025866, 2.498323, 1.025251 
-0.284429, -0.047697, 1.016263, 2.498115, 1.015576 
-0.282563, -0.048993, 1.003721, 2.498086, 1.003036 
-0.280562, -0.046105, 0.989719, 2.498363, 0.989150 
-0.278264, -0.031687, 0.976258, 2.499188, 0.975987 
-0.275836, -0.011074, 0.968298, 2.500118, 0.968347 
-0.273455, 0.009164, 0.968828, 2.500773, 0.969096 
-0.271143, 0.026853, 0.976952, 2.501167, 0.977354 
-0.268912, 0.041227, 0.989963, 2.501369, 0.990441 
-0.266765, 0.052094, 1.004702, 2.501453, 1.005218 
-0.264698, 0.059634, 1.018192, 2.501476, 1.018723 
-0.262713, 0.063923, 1.027926, 2.501476, 1.028463 
-0.261935, 0.021741, 1.030882, 2.500997, 1.031246 
-0.260891, -0.009807, 1.032346, 2.500040, 1.032362 
-0.259566, -0.028806, 1.031015, 2.499149, 1.030699 
-0.258071, -0.042764, 1.025964, 2.498410, 1.025377 
-0.256333, -0.049434, 1.016621, 2.498084, 1.015926 
-0.254436, -0.049346, 1.003932, 2.498092, 1.003255 
-0.252450, -0.046966, 0.989974, 2.498341, 0.989400 
-0.250154, -0.032708, 0.976420, 2.499167, 0.976145 
-0.247719, -0.011654, 0.968313, 2.500111, 0.968361 
-0.245329, 0.009207, 0.968764, 2.500769, 0.969031 
-0.243018, 0.026829, 0.976918, 2.501152, 0.977317 
-0.240791, 0.040901, 0.990073, 2.501346, 0.990544 
-0.238646, 0.051568, 1.005056, 2.501427, 1.005563 
-0.236581, 0.058986, 1.018841, 2.501449, 1.019364 
-0.234596, 0.063225, 1.028887, 2.501447, 1.029415 
-0.233743, 0.030749, 1.032040, 2.500890, 1.032363 
-0.232659, -0.000717, 1.033546, 2.500111, 1.033573 
-0.231372, -0.022464, 1.032067, 2.499227, 1.031761 
-0.229911, -0.039046, 1.026722, 2.498451, 1.026130 
-0.228223, -0.048731, 1.016881, 2.498022, 1.016147 
-0.226401, -0.053283, 1.003454, 2.497866, 1.002685 
-0.224423, -0.052773, 0.987857, 2.498079, 0.987192 
-0.222117, -0.040081, 0.971845, 2.498934, 0.971505 
-0.219671, -0.019332, 0.960910, 2.499948, 0.960918 
-0.217273, 0.000736, 0.959131, 2.500692, 0.959384 
-0.214945, 0.020223, 0.966472, 2.501136, 0.966870 
-0.212710, 0.035630, 0.980410, 2.501353, 0.980884 
-0.210557, 0.047467, 0.997704, 2.501437, 0.998213 
-0.208486, 0.055851, 1.015103, 2.501448, 1.015625 
-0.206494, 0.061027, 1.029783, 2.501430, 1.030307 
-0.204679, 0.061194, 1.039253, 2.501338, 1.039746 
-0.203764, 0.031488, 1.042279, 2.500827, 1.042582 
-0.202717, 0.001098, 1.043115, 2.500067, 1.043122 
-0.201458, -0.023217, 1.040703, 2.499199, 1.040378 
-0.200000, -0.041262, 1.034062, 2.498423, 1.033450 
-0.198347, -0.051949, 1.022880, 2.497896, 1.022087 
-0.196483, -0.056347, 1.007520, 2.497794, 1.006721 
-0.194412, -0.052175, 0.989813, 2.498160, 0.989177 
-0.192106, -0.038581, 0.972756, 2.499007, 0.972435 
-0.189666, -0.019021, 0.961337, 2.500000, 0.961364 
-0.187268, 0.002840, 0.959512, 2.500711, 0.959769 
-0.184954, 0.020789, 0.966921, 2.501125, 0.967315 
-0.182718, 0.035576, 0.980950, 2.501338, 0.981421 
-0.180567, 0.046906, 0.998181, 2.501418, 0.998688 
-0.178507, 0.054497, 1.015223, 2.501422, 1.015740 
-0.176616, 0.057596, 1.028827, 2.501335, 1.029318 
-0.174787, 0.057923, 1.037993, 2.501259, 1.038460 
-0.173858, 0.028200, 1.040817, 2.500760, 1.041097 
-0.172785, -0.001916, 1.041390, 2.500016, 1.041380 
-0.171498, -0.025887, 1.038602, 2.499165, 1.038268 
-0.170043, -0.044154, 1.031686, 2.498358, 1.031057 
-0.168370, -0.055062, 1.020212, 2.497857, 1.019421 
-0.166501, -0.057052, 1.004976, 2.497763, 1.004173 
-0.164396, -0.052958, 0.987388, 2.498231, 0.986784 
-0.162043, -0.036889, 0.970974, 2.499169, 0.970712 
-0.159588, -0.015018, 0.960838, 2.500140, 0.960906 
-0.157200, 0.005928, 0.960281, 2.500784, 0.960561 
-0.154897, 0.023410, 0.968571, 2.501149, 0.968974 
-0.152686, 0.037069, 0.982904, 2.501320, 0.983370 
-0.150565, 0.047061, 0.999885, 2.501376, 1.000379 
-0.148598, 0.053187, 1.015815, 2.501319, 1.016294 
-0.146711, 0.055513, 1.028897, 2.501252, 1.029356 
-0.144863, 0.055746, 1.037575, 2.501205, 1.038020 
-0.143928, 0.025806, 1.040072, 2.500711, 1.040330 
-0.142832, -0.004966, 1.040269, 2.499983, 1.040246 
-0.141552, -0.029439, 1.037111, 2.499095, 1.036753 
-0.140064, -0.046685, 1.029772, 2.498316, 1.029134 
-0.138400, -0.057253, 1.018245, 2.497805, 1.017437 
-0.136480, -0.059613, 1.002734, 2.497845, 1.001972 
-0.134327, -0.051186, 0.985496, 2.498407, 0.984956 
-0.131950, -0.033018, 0.970034, 2.499372, 0.969838 
-0.129504, -0.010608, 0.961181, 2.500271, 0.961288 
-0.127134, 0.009408, 0.961665, 2.500838, 0.961960 
-0.124867, 0.025239, 0.970437, 2.501138, 0.970835 
-0.122677, 0.037902, 0.984752, 2.501283, 0.985206 
-0.120638, 0.046729, 1.000785, 2.501273, 1.001240 
-0.118692, 0.051229, 1.016076, 2.501226, 1.016520 
-0.116785, 0.053474, 1.028722, 2.501193, 1.029158 
-0.114914, 0.054274, 1.036931, 2.501159, 1.037358 
-0.113950, 0.024604, 1.039169, 2.500694, 1.039421 
-0.112864, -0.007322, 1.039056, 2.499952, 1.039021 
-0.111592, -0.032134, 1.035689, 2.499022, 1.035305 
-0.110102, -0.049855, 1.028238, 2.498238, 1.027576 
-0.108382, -0.059742, 1.016441, 2.497841, 1.015659 
-0.106434, -0.059242, 1.001175, 2.497948, 1.000455 
-0.104261, -0.049029, 0.984548, 2.498563, 0.984061 
-0.101871, -0.029448, 0.969985, 2.499528, 0.969838 
-0.099437, -0.007153, 0.962082, 2.500358, 0.962214 
-0.097107, 0.011325, 0.963119, 2.500845, 0.963415 
-0.094852, 0.026314, 0.971982, 2.501120, 0.972374 
-0.092738, 0.038059, 0.985516, 2.501190, 0.985936 
-0.090730, 0.044878, 1.000822, 2.501181, 1.001243 
-0.088763, 0.049253, 1.015714, 2.501171, 1.016136 
-0.086830, 0.052242, 1.027985, 2.501151, 1.028404 
-0.084937, 0.053571, 1.035863, 2.501131, 1.036278 
-0.083971, 0.023478, 1.037929, 2.500677, 1.038174 
-0.082883, -0.008656, 1.037701, 2.499921, 1.037655 
-0.081610, -0.035254, 1.034289, 2.498986, 1.033899 
-0.080090, -0.052492, 1.026825, 2.498242, 1.026175 
-0.078351, -0.060250, 1.015273, 2.497886, 1.014513 
-0.076387, -0.058335, 1.000483, 2.498046, 0.999799 
-0.074202, -0.046822, 0.984513, 2.498693, 0.984070 
-0.071809, -0.026441, 0.970689, 2.499641, 0.970577 
-0.069405, -0.005098, 0.963395, 2.500395, 0.963537 
-0.067102, 0.011885, 0.964552, 2.500832, 0.964843 
-0.064903, 0.026889, 0.972870, 2.501037, 0.973230 
-0.062832, 0.036166, 0.985589, 2.501095, 0.985972 
-0.060802, 0.042795, 1.000438, 2.501130, 1.000839 
-0.058806, 0.048107, 1.014956, 2.501136, 1.015364 
-0.056849, 0.051785, 1.026930, 2.501129, 1.027340 
-0.054933, 0.053588, 1.034593, 2.501122, 1.035003 
-0.054032, 0.017166, 1.036548, 2.500707, 1.036785 
-0.052910, -0.014483, 1.036391, 2.499932, 1.036359 
-0.051599, -0.038944, 1.033122, 2.499004, 1.032764 
-0.050071, -0.054213, 1.026099, 2.498264, 1.025481 
-0.048320, -0.059853, 1.015232, 2.497927, 1.014497 
-0.046347, -0.056031, 1.001308, 2.498078, 1.000630 
-0.044157, -0.042983, 0.986181, 2.498681, 0.985716 
-0.041769, -0.022423, 0.972838, 2.499561, 0.972686 
-0.039371, -0.001725, 0.965214, 2.500268, 0.965309 
-0.037077, 0.016299, 0.964667, 2.500682, 0.964904 
-0.034968, 0.026653, 0.969568, 2.500847, 0.969859 
-0.032893, 0.035044, 0.977930, 2.500961, 0.978264 
-0.030846, 0.042303, 0.987689, 2.501034, 0.988051 
-0.028856, 0.047663, 0.996735, 2.501061, 0.997110 
-0.026852, 0.052380, 1.003577, 2.501108, 1.003970 
-0.025650, 0.024148, 1.006079, 2.500751, 1.006334 
-0.024399, -0.002334, 1.006363, 2.500010, 1.006369 
-0.022930, -0.020106, 1.003623, 2.499299, 1.003382 
-0.021433, -0.035614, 0.997498, 2.498357, 0.996929 
-0.019492, -0.032890, 0.985629, 2.498342, 0.985055 
-0.017373, -0.022639, 0.968099, 2.498694, 0.967649 
-0.015117, -0.006710, 0.944766, 2.499272, 0.944514 
-0.013026, 0.002689, 0.918362, 2.499612, 0.918227 
-0.010651, 0.022192, 0.883479, 2.500239, 0.883550 
-0.008424, 0.036030, 0.844650, 2.500593, 0.844826 
-0.006321, 0.044515, 0.802064, 2.500863, 0.802309 
-0.004271, 0.053005, 0.755616, 2.501010, 0.755885 
-0.002141, 0.062853, 0.702561, 2.501216, 0.702863 
-0.000032, 0.071608, 0.645822, 2.501419, 0.646146 
0.001705, 0.065625, 0.595437, 1.796139, 0.427764 
0.008919, 0.049023, 0.405173, 1.796194, 0.291076 
0.015381, 0.003326, 0.301068, 1.795033, 0.216168 
0.022259, -0.023712, 0.261518, 1.794548, 0.187730 
0.029753, -0.026107, 0.248505, 1.794436, 0.178381 
0.037676, -0.011382, 0.242473, 1.794680, 0.174070 
0.045486, -0.003064, 0.241106, 1.794968, 0.173110 
0.053321, 0.007245, 0.241680, 1.795155, 0.173539 
0.061139, 0.016139, 0.243348, 1.795262, 0.174746 
0.068841, 0.019243, 0.245738, 1.795243, 0.176462 
0.076381, 0.017368, 0.247649, 1.795087, 0.177820 
0.083900, 0.014757, 0.248373, 1.794992, 0.178331 
0.091434, 0.012341, 0.248278, 1.794976, 0.178261 
0.098985, 0.010323, 0.248423, 1.795010, 0.178369 
0.106543, 0.008891, 0.250140, 1.795015, 0.179602 
0.114094, 0.007002, 0.253138, 1.795004, 0.181754 
0.121190, -0.013484, 0.254257, 1.795036, 0.182559 
0.128425, -0.028484, 0.251599, 1.794892, 0.180638 
0.135955, -0.031570, 0.246691, 1.794725, 0.177102 
0.143739, -0.023713, 0.242861, 1.794736, 0.174353 
0.151576, -0.013346, 0.241313, 1.794875, 0.173252 
0.159410, -0.003090, 0.241182, 1.795013, 0.173169 
0.167239, 0.006773, 0.241839, 1.795146, 0.173652 
0.175028, 0.013935, 0.243362, 1.795235, 0.174754 
0.182746, 0.017891, 0.245542, 1.795237, 0.176320 
0.190307, 0.017405, 0.247397, 1.795097, 0.177639 
0.197839, 0.015760, 0.248232, 1.795005, 0.178231 
0.205367, 0.012685, 0.248260, 1.794987, 0.178250 
0.212920, 0.011060, 0.248453, 1.795012, 0.178390 
0.220475, 0.009458, 0.250163, 1.795015, 0.179618 
0.228024, 0.007416, 0.253146, 1.795003, 0.181760 
0.235128, -0.012246, 0.254279, 1.795026, 0.182573 
0.242355, -0.028027, 0.251651, 1.794891, 0.180676 
0.249882, -0.031324, 0.246762, 1.794729, 0.177153 
0.257662, -0.023746, 0.242944, 1.794743, 0.174413 
0.265496, -0.013645, 0.241441, 1.794881, 0.173344 
0.273327, -0.003633, 0.241351, 1.795014, 0.173290 
0.281133, 0.004681, 0.241915, 1.795113, 0.173704 
0.288923, 0.011944, 0.243218, 1.795208, 0.174648 
0.296662, 0.017345, 0.245261, 1.795244, 0.176119 
0.304242, 0.018152, 0.247171, 1.795119, 0.177479 
0.311782, 0.017043, 0.248154, 1.795019, 0.178176 
0.319304, 0.013556, 0.248290, 1.794990, 0.178271 
0.326854, 0.011738, 0.248513, 1.795012, 0.178433 
0.334407, 0.010018, 0.250212, 1.795014, 0.179654 
0.341953, 0.007762, 0.253176, 1.795002, 0.181781 
0.349057, -0.011805, 0.254300, 1.795022, 0.182587 
0.356284, -0.027641, 0.251680, 1.794892, 0.180696 
0.363809, -0.031111, 0.246815, 1.794736, 0.177191 
0.371586, -0.023773, 0.243034, 1.794750, 0.174478 
0.379417, -0.013927, 0.241567, 1.794885, 0.173435 
0.387235, -0.004722, 0.241459, 1.794999, 0.173367 
0.395036, 0.003295, 0.241915, 1.795089, 0.173702 
0.402829, 0.010755, 0.243073, 1.795192, 0.174543 
0.410583, 0.017077, 0.245052, 1.795254, 0.175970 
0.418177, 0.018876, 0.247021, 1.795137, 0.177373 
0.425719, 0.017923, 0.248110, 1.795029, 0.178145 
0.433239, 0.014299, 0.248317, 1.794993, 0.178291 
0.440787, 0.012396, 0.248568, 1.795011, 0.178473 
0.448337, 0.010429, 0.250265, 1.795012, 0.179692 
0.455879, 0.007886, 0.253203, 1.795001, 0.181800 
0.462985, -0.011553, 0.254306, 1.795020, 0.182592 
0.470212, -0.027367, 0.251690, 1.794894, 0.180704 
0.477736, -0.030919, 0.246847, 1.794742, 0.177215 
0.485510, -0.023799, 0.243096, 1.794755, 0.174523 
0.493340, -0.014019, 0.241662, 1.794891, 0.173504 
0.501149, -0.005362, 0.241550, 1.794989, 0.173431 
0.508945, 0.002314, 0.241920, 1.795070, 0.173705 
